,mV
0,
1,1894
2,1904
3,1920
4,1935
5,1959
6,1978
7,2000
8,2027
9,2039
10,2045
11,2036
12,2021
13,1999
14,1981
15,1965
16,1937
17,1929
18,1922
19,1934
20,1949
21,1968
22,1987
23,2004
24,2027
25,2047
26,2062
27,2065
28,2070
29,2068
30,2061
31,2042
32,2022
33,2001
34,1984
35,1978
36,1969
37,1969
38,1971
39,1968
40,1973
41,1981
42,1971
43,1968
44,1955
45,1936
46,1921
47,1905
48,1891
49,1878
50,1869
51,1862
52,1865
53,1872
54,1884
55,1902
56,1911
57,1936
58,1947
59,1959
60,1963
61,1947
62,1937
63,1924
64,1904
65,1876
66,1853
67,1838
68,1827
69,1828
70,1837
71,1840
72,1853
73,1862
74,1877
75,1887
76,1892
77,1887
78,1879
79,1869
80,1857
81,1842
82,1823
83,1807
84,1793
85,1794
86,1792
87,1802
88,1808
89,1820
90,1835
91,1851
92,1862
93,1873
94,1877
95,1878
96,1872
97,1872
98,1863
99,1854
100,1844
101,1840
102,1845
103,1856
104,1870
105,1877
106,1890
107,1904
108,1920
109,1923
110,1920
111,1919
112,1904
113,1894
114,1882
115,1866
116,1851
117,1840
118,1832
119,1833
120,1838
121,1846
122,1853
123,1869
124,1886
125,1905
126,1913
127,1913
128,1911
129,1904
130,1901
131,1897
132,1881
133,1873
134,1869
135,1871
136,1872
137,1881
138,1890
139,1904
140,1921
141,1936
142,1947
143,1949
144,1952
145,1947
146,1937
147,1926
148,1917
149,1904
150,1887
151,1879
152,1872
153,1873
154,1877
155,1887
156,1898
157,1909
158,1920
159,1925
160,1923
161,1920
162,1919
163,1914
164,1914
165,1910
166,1907
167,1909
168,1922
169,1936
170,1952
171,1971
172,2001
173,2032
174,2085
175,2127
176,2165
177,2202
178,2238
179,2285
180,2328
181,2384
182,2435
183,2493
184,2559
185,2645
186,2735
187,2829
188,2930
189,3037
190,3159
191,3277
192,3397
193,3510
194,3632
195,3746
196,3852
197,3965
198,4004
199,4069
200,4063
201,4018
202,3949
203,3838
204,3703
205,3535
206,3344
207,3149
208,2934
209,2710
210,2491
211,2272
212,2062
213,1871
214,1697
215,1546
216,1402
217,1296
218,1222
219,1187
220,1185
221,1215
222,1268
223,1339
224,1427
225,1515
226,1601
227,1674
228,1732
229,1784
230,1826
231,1856
232,1872
233,1872
234,1879
235,1889
236,1898
237,1903
238,1909
239,1919
240,1934
241,1943
242,1958
243,1967
244,1968
245,1968
246,1967
247,1959
248,1957
249,1943
250,1936
251,1930
252,1924
253,1925
254,1936
255,1938
256,1980
257,1969
258,1963
259,1952
260,1939
261,1933
262,1922
263,1919
264,1926
265,1933
266,1942
267,1947
268,1955
269,1958
270,1968
271,1968
272,1973
273,1968
274,1961
275,1947
276,1936
277,1925
278,1915
279,1903
280,1899
281,1903
282,1913
283,1929
284,1939
285,1949
286,1968
287,1977
288,1985
289,1981
290,1973
291,1964
292,1953
293,1936
294,1930
295,1909
296,1906
297,1897
298,1897
299,1902
300,1903
301,1913
302,1924
303,1939
304,1953
305,1966
306,1959
307,1955
308,1950
309,1943
310,1933
311,1923
312,1904
313,1896
314,1897
315,1904
316,1909
317,1916
318,1929
319,1940
320,1963
321,1973
322,1983
323,1981
324,1967
325,1957
326,1951
327,1939
328,1931
329,1915
330,1917
331,1918
332,1920
333,1936
334,1941
335,1955
336,1973
337,1999
338,2009
339,2019
340,2022
341,2017
342,2007
343,1995
344,1978
345,1955
346,1939
347,1932
348,1938
349,1948
350,1962
351,1975
352,1997
353,2014
354,2031
355,2044
356,2055
357,2054
358,2045
359,2033
360,2030
361,2012
362,2000
363,1991
364,1990
365,1993
366,1997
367,2005
368,2019
369,2038
370,2063
371,2079
372,2085
373,2085
374,2077
375,2067
376,2063
377,2055
378,2039
379,2032
380,2032
381,2046
382,2064
383,2075
384,2092
385,2094
386,2112
387,2128
388,2142
389,2139
390,2139
391,2135
392,2123
393,2111
394,2096
395,2071
396,2057
397,2041
398,2041
399,2047
400,2064
401,2076
402,2096
403,2123
404,2149
405,2166
406,2183
407,2189
408,2190
409,2186
410,2179
411,2160
412,2143
413,2125
414,2115
415,2109
416,2121
417,2124
418,2128
419,2139
420,2152
421,2165
422,2176
423,2181
424,2187
425,2179
426,2170
427,2159
428,2136
429,2119
430,2102
431,2098
432,2107
433,2114
434,2129
435,2145
436,2163
437,2177
438,2192
439,2192
440,2188
441,2174
442,2161
443,2146
444,2128
445,2112
446,2096
447,2083
448,2075
449,2081
450,2091
451,2101
452,2123
453,2135
454,2151
455,2159
456,2158
457,2139
458,2119
459,2095
460,2062
461,2032
462,2002
463,1986
464,1984
465,1991
466,2000
467,2015
468,2026
469,2033
470,2046
471,2047
472,2031
473,2015
474,1991
475,1967
476,1947
477,1924
478,1894
479,1871
480,1851
481,1838
482,1839
483,1838
484,1840
485,1846
486,1855
487,1863
488,1869
489,1861
490,1856
491,1851
492,1844
493,1837
494,1818
495,1796
496,1776
497,1757
498,1745
499,1744
500,1741
501,1757
502,1764
503,1781
504,1793
505,1800
506,1802
507,1795
508,1789
509,1776
510,1763
511,1750
512,1729
513,1714
514,1712
515,1712
516,1723
517,1732
518,1744
519,1758
520,1776
521,1782
522,1785
523,1777
524,1775
525,1761
526,1750
527,1736
528,1718
529,1706
530,1694
531,1695
532,1704
533,1713
534,1721
535,1729
536,1742
537,1758
538,1769
539,1774
540,1776
541,1774
542,1765
543,1756
544,1741
545,1726
546,1713
547,1700
548,1690
549,1690
550,1690
551,1692
552,1702
553,1712
554,1729
555,1741
556,1744
557,1746
558,1747
559,1741
560,1735
561,1724
562,1717
563,1713
564,1717
565,1729
566,1741
567,1747
568,1760
569,1770
570,1782
571,1790
572,1793
573,1786
574,1776
575,1765
576,1757
577,1741
578,1726
579,1715
580,1706
581,1711
582,1713
583,1725
584,1737
585,1745
586,1765
587,1782
588,1798
589,1803
590,1799
591,1799
592,1793
593,1781
594,1767
595,1758
596,1747
597,1744
598,1744
599,1753
600,1767
601,1781
602,1808
603,1834
604,1855
605,1862
606,1866
607,1857
608,1840
609,1829
610,1812
611,1792
612,1776
613,1761
614,1757
615,1758
616,1769
617,1777
618,1792
619,1807
620,1831
621,1842
622,1853
623,1843
624,1833
625,1815
626,1801
627,1788
628,1769
629,1745
630,1743
631,1741
632,1744
633,1757
634,1771
635,1782
636,1808
637,1830
638,1853
639,1867
640,1875
641,1872
642,1870
643,1862
644,1849
645,1826
646,1807
647,1789
648,1777
649,1775
650,1777
651,1781
652,1787
653,1799
654,1813
655,1824
656,1822
657,1818
658,1814
659,1808
660,1797
661,1791
662,1776
663,1765
664,1766
665,1767
666,1770
667,1776
668,1788
669,1806
670,1819
671,1838
672,1840
673,1840
674,1833
675,1827
676,1811
677,1806
678,1789
679,1777
680,1767
681,1767
682,1772
683,1778
684,1785
685,1792
686,1807
687,1815
688,1824
689,1837
690,1835
691,1829
692,1820
693,1805
694,1787
695,1765
696,1754
697,1742
698,1743
699,1749
700,1760
701,1774
702,1787
703,1807
704,1829
705,1838
706,1840
707,1837
708,1821
709,1808
710,1792
711,1775
712,1755
713,1742
714,1739
715,1742
716,1746
717,1759
718,1773
719,1785
720,1805
721,1815
722,1822
723,1820
724,1813
725,1808
726,1807
727,1792
728,1782
729,1764
730,1762
731,1758
732,1760
733,1770
734,1777
735,1790
736,1808
737,1817
738,1829
739,1828
740,1818
741,1813
742,1796
743,1782
744,1774
745,1754
746,1746
747,1742
748,1743
749,1745
750,1758
751,1767
752,1781
753,1797
754,1808
755,1821
756,1831
757,1824
758,1811
759,1808
760,1792
761,1777
762,1762
763,1757
764,1754
765,1755
766,1761
767,1769
768,1776
769,1783
770,1806
771,1815
772,1823
773,1825
774,1827
775,1815
776,1811
777,1808
778,1792
779,1778
780,1774
781,1774
782,1770
783,1775
784,1779
785,1797
786,1794
787,1811
788,1821
789,1820
790,1814
791,1811
792,1808
793,1805
794,1801
795,1793
796,1788
797,1790
798,1785
799,1791
800,1797
801,1805
802,1811
803,1823
804,1829
805,1837
806,1835
807,1829
808,1825
809,1818
810,1815
811,1801
812,1783
813,1771
814,1767
815,1769
816,1777
817,1790
818,1803
819,1820
820,1838
821,1853
822,1862
823,1862
824,1860
825,1855
826,1843
827,1830
828,1815
829,1801
830,1787
831,1784
832,1781
833,1789
834,1795
835,1808
836,1833
837,1853
838,1867
839,1868
840,1866
841,1859
842,1845
843,1827
844,1818
845,1802
846,1792
847,1792
848,1797
849,1808
850,1825
851,1844
852,1856
853,1879
854,1895
855,1898
856,1895
857,1885
858,1872
859,1857
860,1845
861,1830
862,1815
863,1807
864,1805
865,1808
866,1808
867,1823
868,1837
869,1851
870,1873
871,1885
872,1889
873,1888
874,1882
875,1875
876,1870
877,1856
878,1844
879,1830
880,1830
881,1831
882,1835
883,1840
884,1856
885,1866
886,1883
887,1899
888,1899
889,1894
890,1888
891,1877
892,1869
893,1857
894,1842
895,1827
896,1818
897,1813
898,1814
899,1822
900,1835
901,1851
902,1859
903,1886
904,1903
905,1920
906,1928
907,1923
908,1920
909,1915
910,1904
911,1891
912,1873
913,1865
914,1858
915,1859
916,1860
917,1867
918,1871
919,1886
920,1901
921,1918
922,1924
923,1921
924,1919
925,1910
926,1901
927,1889
928,1872
929,1857
930,1854
931,1856
932,1868
933,1876
934,1891
935,1904
936,1919
937,1936
938,1948
939,1950
940,1947
941,1943
942,1934
943,1926
944,1914
945,1902
946,1894
947,1891
948,1897
949,1904
950,1919
951,1934
952,1946
953,1969
954,1993
955,2001
956,2015
957,2018
958,2017
959,2014
960,2003
961,1997
962,1981
963,1968
964,1967
965,1965
966,1955
967,1968
968,1979
969,1995
970,2011
971,2027
972,2037
973,2045
974,2042
975,2035
976,2032
977,2027
978,2015
979,2000
980,1995
981,1997
982,1997
983,2005
984,2010
985,2021
986,2033
987,2035
988,2036
989,2027
990,2019
991,2002
992,1989
993,1973
994,1953
995,1932
996,1907
997,1891
998,1886
999,1883
1000,1891
1001,1904
1002,1917
1003,1937
1004,1956
1005,1968
1006,1968
1007,1966
1008,1954
1009,1941
1010,1933
1011,1904
1012,1888
1013,1871
1014,1862
1015,1856
1016,1855
1017,1855
1018,1854
1019,1865
1020,1872
1021,1886
1022,1885
1023,1889
1024,1881
1025,1877
1026,1869
1027,1865
1028,1847
1029,1838
1030,1830
1031,1829
1032,1827
1033,1834
1034,1842
1035,1854
1036,1872
1037,1883
1038,1889
1039,1884
1040,1877
1041,1872
1042,1865
1043,1856
1044,1845
1045,1837
1046,1830
1047,1830
1048,1831
1049,1840
1050,1845
1051,1855
1052,1863
1053,1879
1054,1890
1055,1895
1056,1895
1057,1887
1058,1873
1059,1868
1060,1860
1061,1841
1062,1829
1063,1820
1064,1824
1065,1827
1066,1838
1067,1840
1068,1845
1069,1863
1070,1872
1071,1887
1072,1888
1073,1884
1074,1882
1075,1877
1076,1875
1077,1874
1078,1869
1079,1858
1080,1863
1081,1871
1082,1872
1083,1881
1084,1895
1085,1906
1086,1921
1087,1930
1088,1939
1089,1936
1090,1934
1091,1932
1092,1920
1093,1911
1094,1900
1095,1878
1096,1867
1097,1861
1098,1860
1099,1866
1100,1883
1101,1903
1102,1922
1103,1947
1104,1966
1105,1977
1106,1981
1107,1979
1108,1970
1109,1963
1110,1949
1111,1935
1112,1911
1113,1905
1114,1904
1115,1909
1116,1927
1117,1941
1118,1963
1119,1983
1120,2006
1121,2032
1122,2041
1123,2065
1124,2082
1125,2095
1126,2106
1127,2123
1128,2139
1129,2167
1130,2199
1131,2252
1132,2314
1133,2390
1134,2478
1135,2575
1136,2672
1137,2773
1138,2869
1139,2961
1140,3056
1141,3147
1142,3227
1143,3309
1144,3387
1145,3466
1146,3559
1147,3655
1148,3766
1149,3883
1150,3967
1151,4085
1152,4095
1153,4095
1154,4090
1155,3967
1156,3789
1157,3565
1158,3341
1159,3109
1160,2867
1161,2628
1162,2391
1163,2171
1164,1973
1165,1803
1166,1655
1167,1521
1168,1421
1169,1351
1170,1312
1171,1301
1172,1308
1173,1331
1174,1374
1175,1424
1176,1487
1177,1550
1178,1599
1179,1650
1180,1706
1181,1763
1182,1813
1183,1859
1184,1893
1185,1919
1186,1939
1187,1965
1188,1973
1189,1981
1190,1982
1191,1977
1192,1968
1193,1966
1194,1953
1195,1937
1196,1933
1197,1931
1198,1938
1199,1951
1200,1963
1201,1981
1202,2000
1203,2021
1204,2035
1205,2044
1206,2047
1207,2036
1208,2029
1209,2019
1210,2003
1211,1986
1212,1967
1213,1963
1214,1959
1215,1958
1216,1968
1217,1978
1218,1988
1219,2000
1220,2007
1221,2020
1222,2025
1223,2027
1224,2022
1225,2016
1226,2003
1227,1998
1228,1983
1229,1967
1230,1958
1231,1952
1232,1950
1233,1955
1234,1962
1235,1970
1236,1986
1237,2001
1238,2009
1239,2012
1240,2002
1241,1994
1242,1982
1243,1965
1244,1945
1245,1929
1246,1914
1247,1910
1248,1914
1249,1928
1250,1938
1251,1951
1252,1968
1253,1993
1254,2011
1255,2018
1256,2029
1257,2024
1258,2009
1259,2003
1260,1987
1261,1971
1262,1949
1263,1943
1264,1939
1265,1943
1266,1956
1267,1961
1268,1982
1269,1995
1270,2010
1271,2015
1272,2025
1273,2037
1274,2058
1275,2079
1276,2094
1277,2099
1278,2104
1279,2097
1280,2096
1281,2084
1282,2069
1283,2046
1284,2028
1285,2018
1286,2015
1287,2023
1288,2032
1289,2042
1290,2061
1291,2073
1292,2094
1293,2112
1294,2113
1295,2121
1296,2111
1297,2101
1298,2093
1299,2084
1300,2065
1301,2053
1302,2046
1303,2046
1304,2057
1305,2064
1306,2083
1307,2096
1308,2118
1309,2149
1310,2161
1311,2175
1312,2186
1313,2178
1314,2177
1315,2175
1316,2160
1317,2140
1318,2123
1319,2119
1320,2114
1321,2115
1322,2123
1323,2128
1324,2143
1325,2163
1326,2187
1327,2202
1328,2213
1329,2210
1330,2206
1331,2192
1332,2182
1333,2160
1334,2141
1335,2128
1336,2128
1337,2125
1338,2135
1339,2150
1340,2159
1341,2176
1342,2197
1343,2221
1344,2241
1345,2247
1346,2255
1347,2245
1348,2238
1349,2218
1350,2198
1351,2183
1352,2177
1353,2172
1354,2176
1355,2177
1356,2182
1357,2189
1358,2206
1359,2213
1360,2221
1361,2222
1362,2212
1363,2211
1364,2197
1365,2192
1366,2178
1367,2160
1368,2158
1369,2157
1370,2154
1371,2158
1372,2160
1373,2163
1374,2172
1375,2183
1376,2192
1377,2193
1378,2187
1379,2178
1380,2165
1381,2151
1382,2129
1383,2109
1384,2089
1385,2078
1386,2073
1387,2070
1388,2069
1389,2076
1390,2078
1391,2091
1392,2096
1393,2098
1394,2095
1395,2085
1396,2065
1397,2044
1398,2021
1399,1997
1400,1969
1401,1950
1402,1936
1403,1931
1404,1927
1405,1926
1406,1933
1407,1931
1408,1936
1409,1940
1410,1941
1411,1938
1412,1931
1413,1920
1414,1904
1415,1889
1416,1866
1417,1843
1418,1827
1419,1811
1420,1808
1421,1805
1422,1806
1423,1813
1424,1818
1425,1840
1426,1856
1427,1869
1428,1871
1429,1858
1430,1842
1431,1822
1432,1808
1433,1790
1434,1775
1435,1763
1436,1752
1437,1756
1438,1752
1439,1766
1440,1769
1441,1777
1442,1791
1443,1795
1444,1790
1445,1785
1446,1777
1447,1770
1448,1763
1449,1751
1450,1736
1451,1729
1452,1728
1453,1729
1454,1731
1455,1741
1456,1754
1457,1766
1458,1783
1459,1806
1460,1808
1461,1814
1462,1815
1463,1818
1464,1809
1465,1808
1466,1792
1467,1775
1468,1758
1469,1745
1470,1743
1471,1746
1472,1749
1473,1757
1474,1763
1475,1778
1476,1787
1477,1793
1478,1789
1479,1786
1480,1776
1481,1771
1482,1762
1483,1751
1484,1741
1485,1735
1486,1735
1487,1738
1488,1741
1489,1753
1490,1770
1491,1789
1492,1812
1493,1831
1494,1839
1495,1842
1496,1841
1497,1839
1498,1833
1499,1811
1500,1795
1501,1779
1502,1774
1503,1766
1504,1765
1505,1771
1506,1781
1507,1787
1508,1802
1509,1808
1510,1823
1511,1825
1512,1822
1513,1821
1514,1814
1515,1806
1516,1789
1517,1777
1518,1773
1519,1774
1520,1780
1521,1797
1522,1813
1523,1832
1524,1842
1525,1866
1526,1873
1527,1886
1528,1883
1529,1875
1530,1871
1531,1856
1532,1837
1533,1815
1534,1799
1535,1786
1536,1783
1537,1786
1538,1801
1539,1819
1540,1829
1541,1845
1542,1857
1543,1870
1544,1873
1545,1879
1546,1890
1547,1901
1548,1899
1549,1887
1550,1877
1551,1863
1552,1857
1553,1840
1554,1832
1555,1828
1556,1828
1557,1840
1558,1851
1559,1857
1560,1867
1561,1875
1562,1890
1563,1889
1564,1888
1565,1876
1566,1865
1567,1855
1568,1840
1569,1827
1570,1807
1571,1790
1572,1780
1573,1781
1574,1786
1575,1795
1576,1810
1577,1831
1578,1846
1579,1863
1580,1872
1581,1872
1582,1872
1583,1870
1584,1861
1585,1859
1586,1841
1587,1831
1588,1818
1589,1810
1590,1807
1591,1808
1592,1809
1593,1813
1594,1823
1595,1834
1596,1842
1597,1843
1598,1853
1599,1844
1600,1846
1601,1841
1602,1833
1603,1818
1604,1808
1605,1803
1606,1805
1607,1808
1608,1815
1609,1831
1610,1841
1611,1866
1612,1888
1613,1901
1614,1904
1615,1901
1616,1888
1617,1877
1618,1866
1619,1844
1620,1832
1621,1812
1622,1803
1623,1802
1624,1803
1625,1808
1626,1811
1627,1821
1628,1838
1629,1846
1630,1854
1631,1847
1632,1844
1633,1840
1634,1832
1635,1819
1636,1808
1637,1789
1638,1778
1639,1778
1640,1782
1641,1787
1642,1802
1643,1817
1644,1837
1645,1854
1646,1859
1647,1867
1648,1861
1649,1855
1650,1853
1651,1853
1652,1849
1653,1840
1654,1819
1655,1809
1656,1807
1657,1803
1658,1808
1659,1808
1660,1815
1661,1823
1662,1838
1663,1845
1664,1847
1665,1849
1666,1845
1667,1843
1668,1839
1669,1831
1670,1818
1671,1808
1672,1808
1673,1813
1674,1814
1675,1825
1676,1831
1677,1841
1678,1861
1679,1878
1680,1888
1681,1887
1682,1881
1683,1877
1684,1872
1685,1858
1686,1842
1687,1824
1688,1807
1689,1806
1690,1809
1691,1809
1692,1815
1693,1824
1694,1836
1695,1847
1696,1862
1697,1868
1698,1869
1699,1872
1700,1873
1701,1872
1702,1868
1703,1856
1704,1833
1705,1821
1706,1813
1707,1810
1708,1820
1709,1830
1710,1840
1711,1853
1712,1872
1713,1885
1714,1886
1715,1885
1716,1874
1717,1865
1718,1856
1719,1840
1720,1827
1721,1814
1722,1811
1723,1819
1724,1825
1725,1840
1726,1851
1727,1870
1728,1891
1729,1908
1730,1921
1731,1933
1732,1925
1733,1920
1734,1911
1735,1901
1736,1881
1737,1853
1738,1840
1739,1829
1740,1829
1741,1835
1742,1843
1743,1853
1744,1865
1745,1885
1746,1901
1747,1904
1748,1904
1749,1895
1750,1891
1751,1877
1752,1867
1753,1851
1754,1840
1755,1837
1756,1836
1757,1839
1758,1850
1759,1858
1760,1871
1761,1887
1762,1909
1763,1931
1764,1936
1765,1937
1766,1937
1767,1931
1768,1919
1769,1904
1770,1883
1771,1868
1772,1861
1773,1861
1774,1863
1775,1869
1776,1874
1777,1887
1778,1902
1779,1911
1780,1919
1781,1919
1782,1915
1783,1907
1784,1897
1785,1888
1786,1872
1787,1859
1788,1851
1789,1853
1790,1856
1791,1861
1792,1871
1793,1885
1794,1901
1795,1919
1796,1936
1797,1939
1798,1937
1799,1933
1800,1918
1801,1907
1802,1895
1803,1876
1804,1856
1805,1843
1806,1842
1807,1841
1808,1845
1809,1856
1810,1870
1811,1887
1812,1904
1813,1917
1814,1919
1815,1919
1816,1915
1817,1905
1818,1903
1819,1888
1820,1871
1821,1859
1822,1853
1823,1853
1824,1858
1825,1870
1826,1879
1827,1889
1828,1914
1829,1929
1830,1938
1831,1937
1832,1934
1833,1930
1834,1915
1835,1907
1836,1892
1837,1874
1838,1873
1839,1873
1840,1887
1841,1895
1842,1898
1843,1909
1844,1917
1845,1932
1846,1936
1847,1936
1848,1933
1849,1920
1850,1907
1851,1899
1852,1883
1853,1869
1854,1850
1855,1842
1856,1841
1857,1850
1858,1861
1859,1874
1860,1901
1861,1922
1862,1947
1863,1963
1864,1968
1865,1974
1866,1968
1867,1959
1868,1957
1869,1947
1870,1938
1871,1933
1872,1930
1873,1941
1874,1957
1875,1973
1876,1991
1877,2015
1878,2037
1879,2075
1880,2086
1881,2095
1882,2093
1883,2086
1884,2068
1885,2047
1886,2022
1887,2000
1888,1981
1889,1975
1890,1982
1891,1990
1892,1997
1893,2010
1894,2032
1895,2064
1896,2082
1897,2097
1898,2108
1899,2111
1900,2107
1901,2096
1902,2081
1903,2064
1904,2033
1905,2029
1906,2013
1907,2009
1908,2006
1909,2011
1910,2009
1911,2023
1912,2037
1913,2045
1914,2042
1915,2032
1916,2019
1917,2004
1918,1994
1919,1974
1920,1957
1921,1947
1922,1951
1923,1954
1924,1957
1925,1963
1926,1968
1927,1969
1928,1975
1929,1982
1930,1979
1931,1978
1932,1973
1933,1962
1934,1953
1935,1936
1936,1922
1937,1903
1938,1888
1939,1885
1940,1875
1941,1872
1942,1877
1943,1875
1944,1881
1945,1898
1946,1905
1947,1917
1948,1920
1949,1925
1950,1922
1951,1916
1952,1909
1953,1895
1954,1878
1955,1872
1956,1872
1957,1873
1958,1886
1959,1892
1960,1902
1961,1911
1962,1922
1963,1926
1964,1929
1965,1919
1966,1914
1967,1904
1968,1893
1969,1879
1970,1862
1971,1850
1972,1847
1973,1842
1974,1853
1975,1859
1976,1871
1977,1879
1978,1903
1979,1921
1980,1935
1981,1936
1982,1932
1983,1923
1984,1918
1985,1905
1986,1894
1987,1884
1988,1874
1989,1874
1990,1879
1991,1893
1992,1904
1993,1920
1994,1936
1995,1957
1996,1967
1997,1972
1998,1968
1999,1951
2000,1937
2001,1923
2002,1907
2003,1894
2004,1875
2005,1866
2006,1866
2007,1872
2008,1875
2009,1891
2010,1905
2011,
2012,
2013,
2014,1925
2015,1946
2016,1953
2017,1952
2018,1943
2019,1938
2020,1927
2021,1929
2022,1917
2023,1911
2024,1904
2025,1905
2026,1908
2027,1917
2028,1919
2029,1927
2030,1944
2031,1958
2032,1981
2033,1993
2034,2003
2035,1999
2036,1989
2037,1978
2038,1968
2039,1946
2040,1935
2041,1924
2042,1931
2043,1942
2044,1959
2045,1982
2046,2005
2047,2035
2048,2080
2049,2117
2050,2158
2051,2191
2052,2223
2053,2254
2054,2290
2055,2333
2056,2373
2057,2419
2058,2480
2059,2547
2060,2634
2061,
2062,
2063,
2064,2719
2065,2814
2066,2915
2067,3023
2068,3145
2069,3264
2070,3376
2071,3490
2072,3598
2073,3699
2074,3795
2075,3886
2076,3958
2077,4011
2078,4048
2079,4064
2080,4039
2081,3984
2082,1987
2083,1994
2084,1999
2085,2005
2086,2017
2087,2032
2088,2035
2089,2034
2090,2031
2091,2023
2092,2007
2093,1994
2094,1983
2095,1963
2096,1947
2097,1936
2098,1936
2099,1943
2100,1954
2101,1961
2102,1973
2103,1990
2104,2015
2105,2031
2106,2033
2107,2030
2108,2029
2109,2015
2110,2001
2111,1985
2112,1964
2113,1940
2114,1935
2115,1932
2116,1934
2117,1940
2118,
2119,
2120,
2121,1958
2122,1968
2123,1990
2124,2003
2125,2015
2126,2023
2127,2021
2128,2015
2129,2011
2130,2000
2131,1988
2132,1973
2133,1958
2134,1950
2135,1941
2136,1948
2137,1953
2138,1965
2139,2041
2140,2067
2141,2091
2142,2111
2143,2122
2144,2124
2145,2122
2146,2113
2147,2107
2148,2096
2149,2077
2150,2062
2151,2043
2152,2036
2153,2045
2154,2046
2155,2061
2156,2067
2157,2084
2158,2099
2159,2117
2160,2127
2161,2128
2162,2128
2163,2128
2164,2128
2165,2125
2166,2112
2167,2101
2168,2095
2169,2096
2170,2099
2171,2106
2172,2113
2173,2121
2174,2135
2175,2157
2176,2173
2177,
2178,
2179,2182
2180,2188
2181,2189
2182,2189
2183,2182
2184,2174
2185,2165
2186,2159
2187,2158
2188,2160
2189,2161
2190,2166
2191,2183
2192,2196
2193,2220
2194,2237
2195,2241
2196,2235
2197,2189
2198,2173
2199,2152
2200,2138
2201,2123
2202,2107
2203,2091
2204,2071
2205,2064
2206,2059
2207,2060
2208,2059
2209,2064
2210,2070
2211,2076
2212,2087
2213,2090
2214,2085
2215,2075
2216,2061
2217,2034
2218,2014
2219,1991
2220,1965
2221,1936
2222,1917
2223,1905
2224,1901
2225,1897
2226,1887
2227,1894
2228,1899
2229,1907
2230,1920
2231,1921
2232,1918
2233,1916
2234,1904
2235,
2236,
2237,
2238,1890
2239,1872
2240,1846
2241,1824
2242,1808
2243,1796
2244,1783
2245,1779
2246,1779
2247,1785
2248,1793
2249,1801
2250,1808
2251,1810
2252,1809
2253,1806
2254,1801
2255,1793
2256,1801
2257,1795
2258,1790
2259,1789
2260,1776
2261,1767
2262,1749
2263,1741
2264,1739
2265,1744
2266,
2267,
2268,
2269,1751
2270,1762
2271,1774
2272,1790
2273,1806
2274,1814
2275,1824
2276,1821
2277,1817
2278,1809
2279,1799
2280,1791
2281,1777
2282,1765
2283,1762
2284,1757
2285,1754
2286,1765
2287,1770
2288,1776
2289,1786
2290,1802
2291,1809
2292,1814
2293,1809
2294,1813
2295,1809
2296,1807
2297,1799
2298,1789
2299,1779
2300,1774
2301,1771
2302,1778
2303,1779
2304,1795
2305,1807
2306,1824
2307,1840
2308,1851
2309,1857
2310,1858
2311,1856
2312,1837
2313,1818
2314,1806
2315,1795
2316,1794
2317,1799
2318,1806
2319,1819
2320,1840
2321,1863
2322,1886
2323,1900
2324,1899
2325,1897
2326,1887
2327,1875
2328,1867
2329,1850
2330,1823
2331,1826
2332,1841
2333,
2334,
2335,
2336,1859
2337,1867
2338,1867
2339,1866
2340,1850
2341,1840
2342,1826
2343,1805
2344,1791
2345,1776
2346,1775
2347,1778
2348,1787
2349,1797
2350,1819
2351,1839
2352,1861
2353,1877
2354,1888
2355,1886
2356,1887
2357,1879
2358,1872
2359,1857
2360,1830
2361,1819
2362,1806
2363,1797
2364,1801
2365,1805
2366,1808
2367,1811
2368,1827
2369,1847
2370,1859
2371,1869
2372,1866
2373,1866
2374,1863
2375,1856
2376,1840
2377,1825
2378,1816
2379,1813
2380,
2381,
2382,
2383,1821
2384,1827
2385,1841
2386,1847
2387,1858
2388,1872
2389,1884
2390,1884
2391,1875
2392,1870
2393,1857
2394,1846
2395,1833
2396,1812
2397,1797
2398,1791
2399,1789
2400,1793
2401,1844
2402,1838
2403,1830
2404,1830
2405,1834
2406,1841
2407,1847
2408,1861
2409,1875
2410,1885
2411,
2412,
2413,
2414,
2415,1892
2416,1891
2417,1887
2418,1888
2419,1878
2420,1870
2421,1856
2422,1843
2423,1841
2424,1840
2425,1847
2426,1851
2427,1861
2428,1869
2429,1876
2430,1891
2431,1897
2432,1901
2433,1903
2434,1904
2435,1903
2436,1900
2437,1883
2438,1870
2439,1855
2440,1844
2441,1842
2442,1845
2443,1847
2444,1855
2445,1862
2446,1875
2447,1886
2448,1893
2449,1903
2450,1902
2451,1901
2452,1898
2453,1900
2454,1887
2455,1877
2456,1871
2457,1863
2458,1867
2459,1893
2460,1893
2461,1902
2462,
2463,
2464,
2465,1913
2466,1921
2467,1936
2468,1947
2469,1966
2470,1977
2471,1985
2472,1991
2473,2000
2474,2001
2475,2005
2476,2002
2477,1997
2478,1993
2479,1985
2480,1988
2481,1986
2482,1823
2483,1836
2484,1840
2485,1857
2486,1883
2487,1905
2488,1926
2489,1934
2490,1937
2491,1933
2492,1921
2493,1904
2494,1889
2495,1871
2496,1855
2497,1856
2498,1855
2499,1859
2500,1866
2501,1873
2502,1885
2503,1902
2504,1917
2505,1922
2506,1926
2507,1922
2508,1908
2509,1895
2510,1882
2511,1861
2512,1843
2513,1830
2514,1826
2515,1827
2516,1841
2517,1862
2518,1883
2519,1905
2520,
2521,
2522,
2523,1933
2524,1949
2525,1952
2526,1957
2527,1959
2528,1951
2529,1946
2530,1927
2531,1921
2532,1903
2533,1898
2534,1894
2535,1887
2536,1901
2537,1910
2538,1927
2539,1947
2540,1966
2541,1329
2542,1324
2543,1328
2544,1355
2545,1391
2546,1439
2547,1490
2548,1551
2549,1607
2550,1673
2551,1737
2552,1795
2553,1847
2554,1897
2555,1931
2556,1965
2557,1989
2558,2000
2559,2002
2560,2000
2561,1984
2562,1968
2563,1959
2564,1942
2565,1927
2566,1930
2567,1933
2568,1942
2569,1955
2570,1978
2571,1993
2572,2017
2573,2033
2574,2054
2575,2047
2576,2045
2577,2039
2578,2031
2579,
2580,
2581,
2582,2018
2583,2006
2584,1994
2585,1979
2586,1970
2587,1969
2588,1971
2589,1983
2590,1989
2591,1993
2592,2005
2593,2013
2594,2009
2595,2001
2596,1994
2597,1982
2598,1968
2599,1957
2600,2023
2601,2023
2602,2020
2603,2013
2604,2005
2605,1994
2606,1978
2607,1970
2608,1968
2609,1969
2610,1970
2611,1978
2612,1983
2613,1998
2614,2012
2615,2019
2616,2017
2617,2021
2618,2018
2619,2019
2620,2016
2621,2006
2622,2003
2623,2000
2624,2005
2625,2018
2626,2032
2627,2054
2628,2065
2629,2083
2630,2100
2631,2107
2632,2108
2633,2101
2634,2090
2635,2075
2636,2067
2637,
2638,
2639,
2640,2044
2641,2037
2642,2029
2643,2021
2644,2021
2645,2019
2646,2016
2647,2031
2648,2039
2649,2070
2650,2090
2651,2101
2652,2111
2653,2112
2654,2112
2655,2103
2656,2094
2657,2079
2658,2199
2659,2187
2660,2173
2661,2160
2662,2144
2663,2133
2664,2128
2665,2131
2666,2149
2667,2171
2668,2189
2669,2202
2670,2219
2671,2235
2672,2237
2673,2234
2674,2224
2675,2214
2676,2202
2677,2188
2678,2167
2679,2144
2680,2132
2681,2130
2682,2139
2683,2155
2684,2163
2685,2176
2686,2187
2687,2203
2688,2212
2689,2213
2690,2203
2691,2190
2692,2165
2693,2147
2694,2126
2695,
2696,
2697,
2698,2107
2699,2087
2700,2077
2701,2071
2702,2069
2703,2069
2704,2073
2705,2075
2706,2081
2707,2091
2708,2093
2709,2085
2710,2068
2711,2045
2712,2027
2713,1999
2714,1975
2715,1762
2716,1745
2717,1730
2718,1712
2719,1701
2720,1693
2721,1696
2722,1698
2723,1709
2724,1726
2725,1734
2726,1749
2727,1766
2728,1772
2729,1773
2730,1769
2731,1757
2732,1755
2733,1755
2734,1744
2735,1733
2736,1724
2737,1723
2738,1714
2739,1717
2740,1721
2741,1726
2742,1737
2743,1749
2744,1757
2745,1762
2746,1759
2747,1760
2748,1754
2749,1750
2750,1749
2751,1741
2752,1730
2753,1728
2754,1733
2755,1741
2756,
2757,
2758,
2759,1749
2760,1754
2761,1759
2762,1774
2763,1782
2764,1789
2765,1792
2766,1791
2767,1792
2768,1785
2769,1778
2770,1770
2771,1749
2772,1741
2773,1737
2774,1733
2775,1735
2776,1738
2777,1750
2778,1791
2779,1797
2780,1808
2781,1821
2782,1835
2783,1846
2784,1856
2785,1871
2786,1870
2787,1867
2788,1856
2789,1843
2790,1825
2791,1811
2792,1795
2793,1795
2794,1793
2795,1799
2796,1808
2797,1821
2798,1840
2799,1856
2800,1872
2801,1877
2802,1875
2803,1876
2804,1871
2805,1858
2806,1842
2807,1829
2808,1808
2809,1797
2810,1795
2811,1797
2812,1806
2813,1813
2814,1827
2815,
2816,
2817,
2818,1845
2819,1867
2820,1872
2821,1871
2822,1863
2823,1854
2824,1837
2825,1825
2826,1803
2827,1779
2828,1771
2829,1764
2830,1762
2831,1765
2832,1767
2833,1775
2834,1783
2835,1801
2836,1763
2837,1762
2838,1765
2839,1767
2840,1775
2841,1796
2842,1809
2843,1815
2844,1826
2845,1823
2846,1819
2847,1813
2848,1804
2849,1791
2850,1775
2851,1766
2852,1761
2853,1760
2854,1764
2855,1773
2856,1785
2857,1793
2858,1809
2859,1823
2860,1827
2861,1821
2862,1815
2863,1808
2864,1802
2865,1791
2866,1773
2867,1760
2868,1751
2869,1749
2870,1760
2871,
2872,
2873,
2874,
2875,1766
2876,1776
2877,1783
2878,1804
2879,1821
2880,1837
2881,1845
2882,1846
2883,1837
2884,1833
2885,1811
2886,1797
2887,1776
2888,1763
2889,1755
2890,1753
2891,1758
2892,1765
2893,1824
2894,1840
2895,1855
2896,1866
2897,1872
2898,1869
2899,1859
2900,1849
2901,1840
2902,1827
2903,1804
2904,1781
2905,1762
2906,1760
2907,1755
2908,1766
2909,1776
2910,1787
2911,1807
2912,1824
2913,1843
2914,1857
2915,1865
2916,1872
2917,1868
2918,1857
2919,1855
2920,1840
2921,1834
2922,1827
2923,1834
2924,1840
2925,1847
2926,1857
2927,1865
2928,1882
2929,1901
2930,1904
2931,
2932,
2933,
2934,1905
2935,1900
2936,1887
2937,1871
2938,1856
2939,1840
2940,1817
2941,1801
2942,1803
2943,1803
2944,1808
2945,1826
2946,1850
2947,1866
2948,1887
2949,1904
2950,1904
2951,1899
2952,2021
2953,2017
2954,2005
2955,1999
2956,1984
2957,1975
2958,1960
2959,1936
2960,1927
2961,1922
2962,1930
2963,1936
2964,
2965,
2966,
2967,
2968,1961
2969,1977
2970,2000
2971,2031
2972,2055
2973,2065
2974,2061
2975,2054
2976,2039
2977,2025
2978,2006
2979,1984
2980,1966
2981,1953
2982,1947
2983,1954
2984,1953
2985,1954
2986,1962
2987,1965
2988,1970
2989,1977
2990,1979
2991,1969
2992,1965
2993,1953
2994,1939
2995,1921
2996,1904
2997,1889
2998,1879
2999,1879
3000,1882
3001,1887
3002,1897
3003,1904
3004,1919
3005,1931
3006,1933
3007,1932
3008,1923
3009,1913
3010,4018
3011,3906
3012,3767
3013,
3014,
3015,
3016,3583
3017,3394
3018,3192
3019,2979
3020,2768
3021,2545
3022,2331
3023,2127
3024,1930
3025,1756
3026,1605
3027,1469
3028,1361
3029,1283
3030,1247
3031,1249
3032,1275
3033,1321
3034,1389
3035,1461
3036,1552
3037,1627
3038,1695
3039,1744
3040,1793
3041,1838
3042,1861
3043,1882
3044,1883
3045,1886
3046,1901
3047,1910
3048,1925
3049,1940
3050,1959
3051,1967
3052,1985
3053,2010
3054,2029
3055,2037
3056,2043
3057,2039
3058,2035
3059,2026
3060,2013
3061,1997
3062,
3063,
3064,
3065,1983
3066,1979
3067,1971
3068,1973
3069,1975
3070,1984
3071,1993
3072,2009
3073,2022
3074,2025
3075,2030
3076,2022
3077,2013
3078,2002
3079,1984
3080,1969
3081,1956
3082,1949
3083,1942
3084,1938
3085,1935
3086,1935
3087,1943
3088,1959
3089,1977
3090,1999
3091,2024
3092,2057
3093,2074
3094,2081
3095,2071
3096,2064
3097,2045
3098,
3099,
3100,
3101,2030
3102,2011
3103,1989
3104,1984
3105,1975
3106,1979
3107,1987
3108,2000
3109,2013
3110,2032
3111,2062
3112,2082
3113,2090
3114,2091
3115,2082
3116,2077
3117,2060
3118,2042
3119,2023
3120,2010
3121,1999
3122,1995
3123,2001
3124,2013
3125,2033
3126,2055
3127,2075
3128,2094
3129,2117
3130,2125
3131,2130
3132,2128
3133,2126
3134,2112
3135,2096
3136,2071
3137,2047
3138,2033
3139,2032
3140,2033
3141,2112
3142,2097
3143,2094
3144,2096
3145,2098
3146,2103
3147,2112
3148,2127
3149,2145
3150,2163
3151,2182
3152,2187
3153,2189
3154,2187
3155,2179
3156,2175
3157,2166
3158,2153
3159,2150
3160,2150
3161,2160
3162,2169
3163,2181
3164,2187
3165,
3166,
3167,
3168,2192
3169,2203
3170,2213
3171,2214
3172,2210
3173,2203
3174,2193
3175,2185
3176,2175
3177,2159
3178,2146
3179,2142
3180,2144
3181,2149
3182,2160
3183,2171
3184,2181
3185,1754
3186,1762
3187,1774
3188,1778
3189,1795
3190,1807
3191,1810
3192,1808
3193,1798
3194,1791
3195,1776
3196,1767
3197,1744
3198,1728
3199,1712
3200,1711
3201,1709
3202,1714
3203,1722
3204,1734
3205,1744
3206,1764
3207,1776
3208,1792
3209,1796
3210,1794
3211,1792
3212,1782
3213,1776
3214,1765
3215,1754
3216,1747
3217,1754
3218,1764
3219,1774
3220,1783
3221,1792
3222,1802
3223,1819
3224,1830
3225,1830
3226,
3227,
3228,
3229,1821
3230,1813
3231,1799
3232,1783
3233,1771
3234,1748
3235,1739
3236,1725
3237,1725
3238,1729
3239,1739
3240,1750
3241,1769
3242,1786
3243,1808
3244,1828
3245,1835
3246,1835
3247,1886
3248,1906
3249,1919
3250,1916
3251,1905
3252,1894
3253,1878
3254,1863
3255,1839
3256,1823
3257,1808
3258,1811
3259,1813
3260,1819
3261,1824
3262,1834
3263,1851
3264,1858
3265,1866
3266,1872
3267,1872
3268,1866
3269,1869
3270,1859
3271,1845
3272,1836
3273,1821
3274,1815
3275,1810
3276,1814
3277,1818
3278,1823
3279,1838
3280,1851
3281,1868
3282,1879
3283,1884
3284,
3285,
3286,
3287,1884
3288,1874
3289,1871
3290,1857
3291,1840
3292,1823
3293,1805
3294,1798
3295,1801
3296,1805
3297,1806
3298,1813
3299,1830
3300,1845
3301,1859
3302,1865
3303,1867
3304,1859
3305,1866
3306,1869
3307,1864
3308,1856
3309,1842
3310,1824
3311,1808
3312,1788
3313,1776
3314,1769
3315,1771
3316,1770
3317,1775
3318,1781
3319,1800
3320,1821
3321,1840
3322,1845
3323,1849
3324,1843
3325,1835
3326,1827
3327,1813
3328,1796
3329,1776
3330,1770
3331,1767
3332,1767
3333,1774
3334,1781
3335,1796
3336,1810
3337,1824
3338,1842
3339,1853
3340,1856
3341,1855
3342,1847
3343,
3344,
3345,
3346,1840
3347,1829
3348,1812
3349,1801
3350,1786
3351,1778
3352,1775
3353,1776
3354,1784
3355,1791
3356,1809
3357,1830
3358,1847
3359,1859
3360,1856
3361,1856
3362,1843
3363,1840
3364,1827
3365,1873
3366,1869
3367,1859
3368,1841
3369,1839
3370,1836
3371,1837
3372,1841
3373,1853
3374,1860
3375,1872
3376,1889
3377,1899
3378,1895
3379,1893
3380,1882
3381,1873
3382,1860
3383,1846
3384,1839
3385,1830
3386,1822
3387,1826
3388,1830
3389,1838
3390,1847
3391,1870
3392,1879
3393,1898
3394,1904
3395,1908
3396,1904
3397,1903
3398,1894
3399,1887
3400,1879
3401,
3402,
3403,
3404,
3405,1870
3406,1856
3407,1855
3408,1858
3409,1868
3410,1873
3411,1883
3412,1894
3413,1904
3414,1914
3415,1920
3416,1918
3417,1915
3418,1911
3419,1904
3420,1895
3421,1886
3422,1872
3423,1911
3424,1905
3425,1911
3426,1913
3427,1916
3428,1919
3429,1922
3430,1931
3431,1945
3432,1961
3433,1970
3434,1977
3435,1980
3436,1987
3437,2000
3438,2001
3439,2007
3440,2001
3441,2001
3442,2015
3443,2017
3444,2027
3445,2033
3446,2034
3447,2047
3448,2064
3449,2066
3450,2071
3451,2064
3452,2063
3453,2047
3454,2035
3455,2027
3456,2010
3457,1999
3458,2000
3459,
3460,
3461,
3462,2005
3463,2018
3464,2033
3465,2057
3466,2067
3467,2093
3468,2106
3469,2114
3470,2116
3471,2103
3472,2085
3473,2064
3474,2032
3475,2009
3476,1979
3477,1958
3478,1936
3479,1936
3480,1936
3481,1847
3482,1843
3483,1853
3484,1861
3485,1878
3486,1897
3487,1911
3488,1933
3489,1954
3490,1965
3491,1964
3492,1965
3493,1952
3494,1943
3495,1929
3496,1903
3497,1883
3498,1872
3499,1863
3500,1863
3501,1868
3502,1873
3503,1885
3504,1904
3505,1915
3506,1931
3507,1936
3508,1930
3509,1933
3510,1921
3511,1910
3512,1902
3513,1883
3514,1868
3515,1860
3516,1856
3517,1863
3518,1876
3519,1894
3520,
3521,
3522,
3523,1911
3524,1932
3525,1953
3526,1968
3527,1973
3528,1979
3529,1979
3530,1979
3531,1971
3532,1962
3533,1941
3534,1929
3535,1920
3536,1914
3537,1920
3538,1921
3539,1924
3540,3262
3541,3369
3542,3482
3543,3617
3544,3760
3545,3920
3546,4064
3547,4095
3548,4095
3549,4095
3550,4095
3551,4095
3552,4064
3553,3871
3554,3645
3555,3405
3556,3171
3557,2934
3558,2704
3559,2471
3560,2262
3561,2074
3562,1904
3563,1753
3564,1623
3565,1511
3566,1418
3567,1354
3568,1310
3569,1297
3570,1303
3571,1334
3572,1381
3573,1439
3574,1520
3575,1600
3576,
3577,
3578,
3579,1681
3580,1757
3581,1838
3582,1904
3583,1953
3584,1991
3585,2016
3586,2032
3587,2036
3588,2033
3589,2021
3590,2006
3591,1999
3592,1994
3593,1993
3594,2000
3595,2007
3596,2019
3597,2031
3598,2058
3599,2075
3600,1983
3601,1989
3602,2003
3603,2018
3604,2043
3605,2054
3606,2057
3607,2055
3608,2043
3609,2034
3610,2026
3611,2007
3612,1998
3613,1983
3614,1977
3615,1973
3616,1973
3617,1971
3618,1980
3619,1990
3620,2001
3621,2013
3622,2014
3623,2015
3624,2017
3625,2006
3626,2001
3627,1991
3628,1981
3629,1968
3630,
3631,
3632,
3633,1967
3634,1965
3635,1967
3636,1979
3637,1984
3638,1998
3639,2013
3640,2032
3641,2045
3642,2057
3643,2058
3644,2053
3645,2039
3646,2032
3647,2021
3648,2008
3649,2000
3650,2128
3651,2141
3652,2158
3653,2177
3654,2199
3655,2219
3656,2224
3657,2224
3658,2218
3659,2215
3660,2206
3661,2192
3662,2174
3663,2169
3664,2165
3665,2164
3666,2174
3667,2186
3668,2198
3669,2219
3670,2240
3671,2256
3672,2261
3673,2261
3674,2256
3675,2249
3676,2241
3677,2224
3678,2205
3679,
3680,
3681,
3682,
3683,2192
3684,2176
3685,2173
3686,2175
3687,2176
3688,2185
3689,2199
3690,2222
3691,2244
3692,2254
3693,2257
3694,2251
3695,2242
3696,2233
3697,2224
3698,2209
3699,2190
3700,2175
3701,2167
3702,2169
3703,2173
3704,2183
3705,2192
3706,2211
3707,2235
3708,2247
3709,2256
3710,2249
3711,2237
3712,2224
3713,2007
3714,1991
3715,1972
3716,1961
3717,1938
3718,1910
3719,1884
3720,1866
3721,1847
3722,1839
3723,1826
3724,1830
3725,
3726,
3727,
3728,1838
3729,1845
3730,1858
3731,1861
3732,1867
3733,1861
3734,1859
3735,1847
3736,1831
3737,1808
3738,1789
3739,1776
3740,1775
3741,1770
3742,1773
3743,1775
3744,1776
3745,1791
3746,1803
3747,1811
3748,1819
3749,1811
3750,1808
3751,1792
3752,1776
3753,1785
3754,1779
3755,1776
3756,1767
3757,1759
3758,1748
3759,1743
3760,1743
3761,1751
3762,1763
3763,1775
3764,1788
3765,1801
3766,1809
3767,1815
3768,1824
3769,1824
3770,1821
3771,1815
3772,1811
3773,1826
3774,1807
3775,1783
3776,1775
3777,1767
3778,1772
3779,1775
3780,1776
3781,1789
3782,1805
3783,1826
3784,1846
3785,1861
3786,1869
3787,1863
3788,1861
3789,
3790,
3791,
3792,1856
3793,1851
3794,1845
3795,1836
3796,1824
3797,1818
3798,1813
3799,1818
3800,1825
3801,1839
3802,1849
3803,1862
3804,1882
3805,1883
3806,1883
3807,1875
3808,1871
3809,1869
3810,1854
3811,1843
3812,1829
3813,1810
3814,1796
3815,1787
3816,1782
3817,1782
3818,1787
3819,1791
3820,1804
3821,1821
3822,1829
3823,1839
3824,1840
3825,1837
3826,1835
3827,
3828,
3829,
3830,
3831,1825
3832,1823
3833,1805
3834,1793
3835,1787
3836,1787
3837,1791
3838,1801
3839,1808
3840,1821
3841,1831
3842,1844
3843,1856
3844,1859
3845,1856
3846,1851
3847,1841
3848,1834
3849,1823
3850,1808
3851,1796
3852,1789
3853,1788
3854,1789
3855,1802
3856,1808
3857,1815
3858,1824
3859,1840
3860,1855
3861,1857
3862,1856
3863,1845
3864,1838
3865,1825
3866,1808
3867,1786
3868,1760
3869,1744
3870,1739
3871,1739
3872,1745
3873,1872
3874,1882
3875,
3876,
3877,
3878,1891
3879,1902
3880,1895
3881,1886
3882,1877
3883,1870
3884,1856
3885,1849
3886,1840
3887,1838
3888,1838
3889,1840
3890,1841
3891,1853
3892,1859
3893,1885
3894,1904
3895,1919
3896,1925
3897,1936
3898,1936
3899,1929
3900,1921
3901,1905
3902,1885
3903,1870
3904,1856
3905,1850
3906,1851
3907,1854
3908,1863
3909,1874
3910,1898
3911,1911
3912,1921
3913,1926
3914,1923
3915,1914
3916,1904
3917,1898
3918,
3919,
3920,
3921,
3922,1883
3923,1870
3924,1859
3925,1854
3926,1861
3927,1869
3928,1872
3929,1886
3930,1903
3931,1918
3932,1934
3933,1942
3934,1943
3935,1938
3936,1936
3937,1924
3938,1909
3939,1893
3940,1873
3941,1869
3942,1869
3943,1866
3944,1874
3945,1881
3946,1893
3947,1872
3948,1873
3949,1883
3950,1894
3951,1907
3952,1919
3953,1934
3954,1945
3955,1949
3956,1955
3957,1953
3958,1949
3959,1936
3960,1929
3961,1915
3962,1895
3963,1879
3964,1873
3965,1874
3966,1880
3967,1891
3968,1905
3969,1920
3970,1938
3971,1956
3972,1968
3973,1973
3974,
3975,
3976,
3977,1984
3978,1998
3979,2003
3980,2013
3981,2017
3982,2015
3983,2011
3984,2012
3985,2009
3986,2009
3987,2012
3988,2011
3989,2022
3990,2029
3991,2045
3992,2043
3993,2039
3994,2034
3995,1899
3996,1911
3997,1913
3998,1913
3999,1904
4000,1899
4001,1883
4002,1875
4003,1865
4004,1857
4005,1851
4006,1853
4007,1851
4008,1851
4009,1860
4010,1861
4011,1873
4012,1885
4013,1898
4014,1899
4015,1899
4016,1895
4017,1887
4018,1877
4019,1871
4020,1857
4021,1851
4022,1847
4023,1851
4024,1859
4025,1866
4026,1875
4027,1890
4028,1904
4029,1917
4030,1917
4031,1918
4032,
