,mV
0,
1,1996
2,1978
3,1968
4,1958
5,1953
6,1952
7,1957
8,1968
9,1989
10,2013
11,2031
12,2035
13,2033
14,2032
15,2026
16,2017
17,2001
18,1983
19,1968
20,1965
21,1968
22,1973
23,1986
24,2000
25,2014
26,2032
27,2047
28,2047
29,2046
30,2037
31,2027
32,2014
33,1996
34,1971
35,1940
36,1919
37,1899
38,1898
39,1903
40,1911
41,1924
42,1936
43,1968
44,1977
45,1975
46,1973
47,1968
48,1956
49,1946
50,1929
51,1907
52,1884
53,1866
54,1856
55,1855
56,1856
57,1869
58,1883
59,1903
60,1923
61,1936
62,1939
63,1933
64,1923
65,1905
66,1883
67,1862
68,1835
69,1811
70,1801
71,1798
72,1802
73,1808
74,1825
75,1840
76,1867
77,1889
78,1900
79,1906
80,1904
81,1901
82,1894
83,1884
84,1870
85,1845
86,1834
87,1824
88,1818
89,1831
90,1840
91,1857
92,1872
93,1895
94,1908
95,1914
96,1911
97,1905
98,1895
99,1893
100,1877
101,1856
102,1841
103,1835
104,1831
105,1831
106,1840
107,1852
108,1862
109,1877
110,1894
111,1899
112,1890
113,1881
114,1872
115,1863
116,1841
117,1817
118,1796
119,1778
120,1776
121,1779
122,1792
123,1813
124,1838
125,1859
126,1895
127,1927
128,1946
129,1958
130,1965
131,1967
132,1964
133,1951
134,1932
135,1907
136,1895
137,1885
138,1886
139,1885
140,1889
141,1898
142,1905
143,1926
144,1938
145,1942
146,1938
147,1936
148,1927
149,1917
150,1901
151,1884
152,1858
153,1841
154,1833
155,1839
156,1843
157,1856
158,1873
159,1898
160,1925
161,1942
162,1953
163,1957
164,1967
165,1967
166,1968
167,1968
168,1957
169,1965
170,1969
171,1994
172,2032
173,2082
174,2147
175,2839
176,2701
177,2577
178,2469
179,2386
180,2334
181,2281
182,2240
183,2215
184,2203
185,2207
186,2213
187,2225
188,2236
189,2251
190,2270
191,2301
192,2329
193,2355
194,2384
195,2401
196,2429
197,2445
198,2442
199,2430
200,2416
201,2400
202,2379
203,2359
204,2341
205,2320
206,2301
207,2288
208,2287
209,2285
210,2290
211,2299
212,2311
213,2333
214,2348
215,2342
216,2331
217,2315
218,2288
219,2270
220,2245
221,2211
222,2183
223,2162
224,2159
225,2158
226,2160
227,2166
228,2176
229,2191
230,2206
231,2210
232,2202
233,2193
234,2185
235,2163
236,2143
237,2122
238,2096
239,2067
240,2039
241,2023
242,2007
243,2001
244,1998
245,2000
246,2015
247,2031
248,2034
249,2033
250,2032
251,2023
252,2007
253,1990
254,1968
255,1935
256,1909
257,1895
258,1890
259,1888
260,1894
261,1902
262,1909
263,1920
264,1933
265,1932
266,1928
267,1926
268,1920
269,1914
270,1904
271,1889
272,1872
273,1861
274,1856
275,1853
276,1850
277,1855
278,1862
279,1874
280,1898
281,1909
282,1910
283,1906
284,1901
285,1885
286,1870
287,1848
288,1822
289,1798
290,1787
291,1789
292,1792
293,1807
294,1821
295,1840
296,1871
297,1886
298,1894
299,1890
300,1879
301,1871
302,1855
303,1842
304,1821
305,1803
306,1789
307,1785
308,1792
309,1801
310,1822
311,1837
312,1855
313,1891
314,1904
315,1915
316,1918
317,1911
318,1902
319,1877
320,1857
321,1835
322,1811
323,1800
324,1795
325,1794
326,1806
327,1819
328,1839
329,1858
330,1885
331,1905
332,1911
333,1913
334,1914
335,1909
336,1904
337,1893
338,1878
339,1866
340,1858
341,1851
342,1859
343,1868
344,1871
345,1882
346,1907
347,1931
348,1942
349,1947
350,1946
351,1944
352,1937
353,1930
354,1908
355,1887
356,1871
357,1861
358,1858
359,1866
360,1871
361,1889
362,1909
363,1938
364,1963
365,1969
366,1975
367,1979
368,1975
369,1968
370,1959
371,1939
372,1920
373,1909
374,1907
375,1906
376,1914
377,1921
378,1927
379,1937
380,1957
381,1967
382,1965
383,1960
384,1955
385,1952
386,1942
387,1926
388,1917
389,1895
390,1887
391,1887
392,1893
393,1909
394,1923
395,1941
396,1970
397,1991
398,2009
399,2003
400,2000
401,1998
402,1986
403,1971
404,1947
405,1919
406,1895
407,1875
408,1872
409,1865
410,1869
411,1872
412,1881
413,1904
414,1909
415,1917
416,1922
417,1920
418,1915
419,1903
420,1893
421,1872
422,1844
423,1829
424,1818
425,1811
426,1810
427,1813
428,1821
429,1823
430,1837
431,1836
432,1830
433,1822
434,1808
435,1793
436,1776
437,1759
438,1729
439,1707
440,1689
441,1680
442,1680
443,1681
444,1691
445,1707
446,1728
447,1744
448,1747
449,1748
450,1743
451,1734
452,1718
453,1703
454,1680
455,1658
456,1635
457,1621
458,1621
459,1616
460,1617
461,1627
462,1641
463,1669
464,1680
465,1693
466,1695
467,1692
468,1686
469,1664
470,1651
471,1628
472,1601
473,1584
474,1578
475,1575
476,1584
477,1594
478,1606
479,1625
480,1649
481,1666
482,1666
483,1662
484,1649
485,1623
486,1607
487,1589
488,1566
489,1547
490,1533
491,1535
492,1550
493,1559
494,1577
495,1600
496,1623
497,1648
498,1651
499,1655
500,1650
501,1656
502,1637
503,1626
504,1611
505,1595
506,1584
507,1587
508,1591
509,1603
510,1616
511,1631
512,1648
513,1663
514,1680
515,1680
516,1675
517,1667
518,1661
519,1651
520,1644
521,1623
522,1609
523,1607
524,1601
525,1603
526,1616
527,1631
528,1650
529,1680
530,1706
531,1722
532,1728
533,1733
534,1734
535,1727
536,1718
537,1699
538,1680
539,1664
540,1648
541,1648
542,1648
543,1651
544,1664
545,1676
546,1698
547,1715
548,1724
549,1723
550,1713
551,1709
552,1701
553,1694
554,1680
555,1658
556,1647
557,1639
558,1647
559,1651
560,1663
561,1680
562,1706
563,1737
564,1755
565,1769
566,1773
567,1771
568,1770
569,1765
570,1750
571,1737
572,1712
573,1699
574,1685
575,1685
576,1682
577,1687
578,1700
579,1713
580,1738
581,1751
582,1760
583,1766
584,1762
585,1763
586,1756
587,1745
588,1727
589,1712
590,1699
591,1696
592,1696
593,1702
594,1713
595,1723
596,1742
597,1759
598,1766
599,1773
600,1769
601,1755
602,1747
603,1733
604,1714
605,1690
606,1676
607,1666
608,1672
609,1681
610,1703
611,1725
612,1748
613,1776
614,1795
615,1807
616,1808
617,1808
618,1801
619,1787
620,1767
621,1744
622,1714
623,1691
624,1682
625,1679
626,1680
627,1689
628,1702
629,1725
630,1745
631,1757
632,1762
633,1759
634,1760
635,1746
636,1742
637,1728
638,1709
639,1692
640,1677
641,1676
642,1674
643,1677
644,1682
645,1698
646,1711
647,1728
648,1738
649,1745
650,1743
651,1739
652,1732
653,1719
654,1702
655,1677
656,1659
657,1651
658,1648
659,1655
660,1663
661,1681
662,1707
663,1733
664,1761
665,1774
666,1775
667,1775
668,1763
669,1751
670,1734
671,1712
672,1690
673,1680
674,1677
675,1677
676,1681
677,1689
678,1702
679,1721
680,1738
681,1744
682,1746
683,1744
684,1738
685,1723
686,1705
687,1685
688,1667
689,1655
690,1648
691,1649
692,1658
693,1675
694,1690
695,1703
696,1723
697,1743
698,1746
699,1758
700,1751
701,1749
702,1744
703,1731
704,1712
705,1687
706,1670
707,1658
708,1655
709,1663
710,1667
711,1680
712,1694
713,1724
714,1746
715,1753
716,1754
717,1755
718,1746
719,1742
720,1725
721,1702
722,1679
723,1663
724,1659
725,1654
726,1664
727,1677
728,1691
729,1712
730,1733
731,1755
732,1758
733,1763
734,1761
735,1746
736,1735
737,1715
738,1698
739,1680
740,1667
741,1665
742,1664
743,1667
744,1677
745,1689
746,1712
747,1733
748,1745
749,1749
750,1747
751,1737
752,1721
753,1712
754,1697
755,1680
756,1665
757,1661
758,1663
759,1673
760,1686
761,1706
762,1721
763,1744
764,1773
765,1777
766,1789
767,1791
768,1783
769,1776
770,1750
771,1729
772,1709
773,1683
774,1679
775,1679
776,1680
777,1686
778,1699
779,1714
780,1733
781,1744
782,1744
783,1744
784,1741
785,1735
786,1730
787,1715
788,1699
789,1685
790,1678
791,1677
792,1683
793,1692
794,1702
795,1712
796,1731
797,1753
798,1759
799,1758
800,1754
801,1753
802,1744
803,1741
804,1733
805,1719
806,1712
807,1711
808,1713
809,1726
810,1743
811,1756
812,1772
813,1792
814,1808
815,1806
816,1808
817,1799
818,1789
819,1776
820,1756
821,1730
822,1701
823,1685
824,1683
825,1687
826,1701
827,1714
828,1730
829,1754
830,1778
831,1797
832,1802
833,1798
834,1795
835,1781
836,1774
837,1756
838,1740
839,1731
840,1721
841,1718
842,1723
843,1730
844,1744
845,1763
846,1789
847,1809
848,1815
849,1818
850,1813
851,1808
852,1802
853,1791
854,1775
855,1758
856,1745
857,1742
858,1743
859,1743
860,1747
861,1762
862,1774
863,1793
864,1809
865,1819
866,1824
867,1819
868,1818
869,1813
870,1810
871,1795
872,1781
873,1779
874,1790
875,1797
876,1818
877,1840
878,1863
879,1895
880,1921
881,1942
882,1945
883,1943
884,1941
885,1927
886,1911
887,1895
888,1869
889,1843
890,1830
891,1826
892,1831
893,1843
894,1863
895,1881
896,1914
897,1937
898,1955
899,1963
900,1961
901,1951
902,1934
903,1914
904,1894
905,1862
906,1842
907,1829
908,1826
909,1826
910,1825
911,1840
912,1847
913,1872
914,1887
915,1894
916,1902
917,1895
918,1886
919,1872
920,1855
921,1827
922,1799
923,1776
924,1761
925,1754
926,1754
927,1757
928,1765
929,1777
930,1803
931,1821
932,1811
933,1810
934,1801
935,1783
936,1766
937,1744
938,1718
939,1701
940,1683
941,1683
942,1691
943,1701
944,1717
945,1738
946,1763
947,1795
948,1808
949,1811
950,1811
951,1810
952,1797
953,1788
954,1770
955,1745
956,1731
957,1725
958,1726
959,1734
960,1742
961,1749
962,1768
963,1789
964,1806
965,1811
966,1814
967,1810
968,1808
969,1798
970,1786
971,1767
972,1743
973,1728
974,1725
975,1725
976,1733
977,1744
978,1762
979,1783
980,1815
981,1834
982,1838
983,1840
984,1839
985,1831
986,1822
987,1809
988,1793
989,1776
990,1769
991,1763
992,1764
993,1771
994,1780
995,1795
996,1808
997,1834
998,1837
999,1843
1000,1840
1001,1837
1002,1825
1003,1811
1004,1801
1005,1777
1006,1761
1007,1755
1008,1754
1009,1761
1010,1772
1011,1787
1012,1809
1013,1808
1014,1828
1015,1843
1016,1870
1017,1904
1018,1953
1019,1997
1020,2036
1021,2080
1022,2120
1023,2159
1024,2208
1025,2256
1026,2306
1027,2357
1028,2416
1029,2483
1030,2575
1031,2668
1032,2768
1033,2871
1034,3001
1035,3134
1036,3261
1037,3385
1038,3506
1039,3639
1040,3760
1041,3892
1042,4016
1043,4095
1044,4095
1045,4095
1046,4095
1047,4095
1048,4034
1049,3889
1050,3711
1051,3518
1052,3347
1053,3170
1054,3008
1055,2855
1056,2706
1057,2575
1058,2437
1059,2330
1060,2232
1061,2151
1062,2102
1063,2081
1064,2096
1065,2119
1066,2158
1067,2203
1068,2259
1069,2317
1070,2359
1071,2391
1072,2411
1073,2426
1074,2425
1075,2415
1076,2395
1077,2367
1078,2346
1079,2327
1080,2326
1081,2324
1082,2330
1083,2331
1084,2345
1085,2362
1086,2373
1087,2373
1088,2365
1089,2352
1090,2335
1091,2319
1092,2294
1093,2270
1094,2239
1095,2219
1096,2210
1097,2201
1098,2191
1099,2193
1100,2202
1101,2213
1102,2226
1103,2229
1104,2239
1105,2228
1106,2214
1107,2189
1108,2155
1109,2136
1110,2103
1111,2078
1112,2063
1113,2044
1114,2046
1115,2045
1116,2055
1117,2063
1118,2076
1119,2092
1120,2096
1121,2081
1122,2082
1123,2053
1124,2039
1125,2021
1126,1995
1127,1965
1128,1936
1129,1923
1130,1909
1131,1902
1132,1897
1133,1899
1134,1903
1135,1911
1136,1920
1137,1919
1138,1905
1139,1908
1140,1904
1141,1902
1142,1889
1143,1872
1144,1852
1145,1840
1146,1835
1147,1840
1148,1836
1149,1846
1150,1856
1151,1873
1152,1895
1153,1909
1154,1915
1155,1909
1156,1904
1157,1894
1158,1877
1159,1865
1160,1844
1161,1820
1162,1805
1163,1792
1164,1794
1165,1798
1166,1807
1167,1819
1168,1835
1169,1862
1170,1872
1171,1873
1172,1872
1173,1865
1174,1857
1175,1845
1176,1831
1177,1814
1178,1790
1179,1781
1180,1782
1181,1793
1182,1801
1183,1813
1184,1827
1185,1844
1186,1865
1187,1869
1188,1863
1189,1866
1190,1857
1191,1843
1192,1830
1193,1808
1194,1788
1195,1769
1196,1765
1197,1765
1198,1767
1199,1785
1200,1802
1201,1827
1202,1856
1203,1873
1204,1886
1205,1891
1206,1889
1207,1887
1208,1874
1209,1867
1210,1846
1211,1829
1212,1823
1213,1817
1214,1833
1215,1845
1216,1865
1217,1883
1218,1910
1219,1936
1220,1949
1221,1954
1222,1954
1223,1939
1224,1937
1225,1925
1226,1907
1227,1886
1228,1868
1229,1866
1230,1863
1231,1873
1232,1887
1233,1899
1234,1921
1235,1941
1236,1957
1237,1962
1238,1958
1239,1960
1240,1956
1241,1950
1242,1939
1243,1920
1244,1910
1245,1906
1246,1904
1247,1907
1248,1905
1249,1932
1250,1943
1251,1968
1252,1995
1253,2000
1254,2003
1255,2003
1256,1998
1257,1981
1258,1968
1259,1950
1260,1925
1261,1904
1262,1893
1263,1891
1264,1897
1265,1904
1266,1915
1267,1930
1268,1963
1269,1990
1270,2006
1271,2019
1272,2026
1273,2027
1274,2011
1275,1997
1276,1975
1277,1953
1278,1934
1279,1927
1280,1919
1281,1927
1282,1937
1283,1937
1284,1958
1285,1974
1286,1983
1287,1983
1288,1968
1289,1963
1290,1943
1291,1933
1292,1920
1293,1904
1294,1887
1295,1876
1296,1873
1297,1877
1298,1877
1299,1881
1300,1893
1301,1902
1302,1911
1303,1923
1304,1913
1305,1903
1306,1884
1307,1871
1308,1843
1309,1828
1310,1802
1311,1776
1312,1759
1313,1750
1314,1749
1315,1748
1316,1749
1317,1755
1318,1772
1319,1785
1320,1791
1321,1790
1322,1791
1323,1781
1324,1778
1325,1766
1326,1749
1327,1733
1328,1710
1329,1701
1330,1690
1331,1686
1332,1685
1333,1689
1334,1699
1335,1715
1336,1734
1337,1741
1338,1741
1339,1742
1340,1734
1341,1725
1342,1711
1343,1687
1344,1675
1345,1662
1346,1664
1347,1665
1348,1667
1349,1674
1350,1681
1351,1697
1352,1716
1353,1721
1354,1727
1355,1723
1356,1715
1357,1707
1358,1693
1359,1680
1360,1659
1361,1637
1362,1626
1363,1619
1364,1628
1365,1631
1366,1645
1367,1657
1368,1683
1369,1703
1370,1715
1371,1712
1372,1711
1373,1699
1374,1681
1375,1667
1376,1650
1377,1638
1378,1629
1379,1627
1380,1633
1381,1647
1382,1661
1383,1680
1384,1705
1385,1734
1386,1762
1387,1776
1388,1779
1389,1790
1390,1782
1391,1774
1392,1755
1393,1734
1394,1712
1395,1702
1396,1696
1397,1696
1398,1705
1399,1715
1400,1733
1401,1755
1402,1778
1403,1794
1404,1804
1405,1802
1406,1792
1407,1779
1408,1765
1409,1750
1410,1733
1411,1717
1412,1712
1413,1718
1414,1727
1415,1739
1416,1753
1417,1767
1418,1791
1419,1815
1420,1829
1421,1828
1422,1829
1423,1826
1424,1826
1425,1818
1426,1808
1427,1792
1428,1776
1429,1767
1430,1767
1431,1773
1432,1777
1433,1794
1434,1809
1435,1838
1436,1861
1437,1872
1438,1879
1439,1879
1440,1872
1441,1866
1442,1855
1443,1837
1444,1814
1445,1873
1446,1869
1447,1871
1448,1872
1449,1875
1450,1890
1451,1904
1452,1921
1453,1945
1454,1955
1455,1963
1456,1960
1457,1951
1458,1939
1459,1920
1460,1904
1461,1885
1462,1872
1463,1867
1464,1867
1465,1872
1466,1874
1467,1888
1468,1907
1469,1935
1470,1954
1471,1957
1472,1962
1473,1962
1474,1957
1475,1951
1476,1936
1477,1917
1478,1900
1479,1887
1480,1883
1481,1879
1482,1879
1483,1888
1484,1898
1485,1909
1486,1925
1487,1930
1488,1931
1489,1929
1490,1926
1491,1919
1492,1911
1493,1902
1494,1889
1495,1878
1496,1881
1497,1885
1498,1890
1499,1904
1500,1911
1501,1923
1502,1943
1503,1962
1504,1967
1505,1965
1506,1966
1507,1952
1508,1938
1509,1924
1510,1906
1511,1883
1512,1873
1513,1866
1514,1866
1515,1872
1516,1874
1517,1886
1518,1901
1519,1920
1520,1936
1521,1945
1522,1952
1523,1952
1524,1952
1525,1949
1526,1936
1527,1918
1528,1897
1529,1890
1530,1887
1531,1892
1532,1903
1533,1913
1534,1929
1535,1951
1536,1969
1537,1983
1538,1979
1539,1971
1540,1965
1541,1946
1542,1930
1543,1908
1544,1886
1545,1875
1546,1871
1547,1872
1548,1875
1549,1888
1550,1904
1551,1921
1552,1945
1553,1967
1554,1973
1555,1979
1556,1973
1557,1968
1558,1963
1559,1947
1560,1931
1561,1904
1562,1891
1563,1879
1564,1872
1565,1877
1566,1883
1567,1898
1568,1916
1569,1941
1570,1961
1571,1968
1572,1971
1573,1973
1574,1968
1575,1961
1576,1945
1577,1926
1578,1911
1579,1904
1580,1905
1581,1905
1582,1907
1583,1914
1584,1926
1585,1949
1586,1968
1587,1979
1588,1985
1589,1988
1590,1985
1591,1977
1592,1965
1593,1949
1594,1926
1595,1909
1596,1904
1597,1906
1598,1913
1599,1923
1600,1936
1601,1958
1602,1987
1603,2003
1604,2007
1605,2003
1606,1997
1607,1981
1608,1968
1609,1947
1610,1928
1611,1904
1612,1887
1613,1882
1614,1883
1615,1894
1616,1906
1617,1926
1618,1956
1619,1985
1620,2007
1621,2019
1622,2026
1623,2023
1624,2021
1625,2007
1626,1997
1627,1971
1628,1957
1629,1947
1630,1945
1631,1948
1632,1951
1633,1963
1634,1968
1635,1989
1636,2006
1637,2021
1638,2023
1639,2011
1640,2006
1641,1996
1642,1989
1643,1980
1644,1959
1645,1950
1646,1942
1647,1941
1648,1943
1649,1953
1650,1974
1651,1987
1652,2021
1653,2035
1654,2047
1655,2057
1656,2054
1657,2045
1658,2034
1659,2019
1660,2000
1661,1976
1662,1963
1663,1953
1664,1950
1665,1952
1666,1962
1667,1975
1668,1997
1669,2017
1670,2032
1671,2032
1672,2035
1673,2031
1674,2022
1675,2007
1676,1995
1677,1971
1678,1957
1679,1950
1680,1951
1681,1956
1682,1969
1683,1985
1684,2004
1685,2031
1686,2061
1687,2069
1688,2076
1689,2073
1690,2070
1691,2061
1692,2038
1693,2019
1694,1999
1695,1982
1696,1971
1697,1973
1698,1984
1699,1991
1700,2008
1701,2026
1702,2047
1703,2070
1704,2077
1705,2075
1706,2068
1707,2064
1708,2058
1709,2047
1710,2033
1711,2021
1712,2015
1713,2029
1714,2033
1715,2061
1716,2077
1717,2096
1718,2123
1719,2155
1720,2173
1721,2185
1722,2190
1723,2192
1724,2194
1725,2192
1726,2188
1727,2177
1728,2166
1729,2160
1730,2160
1731,2161
1732,2174
1733,2191
1734,2207
1735,2233
1736,2256
1737,2268
1738,2274
1739,2277
1740,2275
1741,2271
1742,2265
1743,2257
1744,2240
1745,2231
1746,2227
1747,2227
1748,2234
1749,2240
1750,2249
1751,2256
1752,2278
1753,2294
1754,2304
1755,2311
1756,2309
1757,2299
1758,2283
1759,2267
1760,2243
1761,2219
1762,2207
1763,2204
1764,2210
1765,2224
1766,2241
1767,2259
1768,2285
1769,2309
1770,2321
1771,2320
1772,2315
1773,2302
1774,2288
1775,2277
1776,2258
1777,2236
1778,2213
1779,2198
1780,2192
1781,2185
1782,2182
1783,2188
1784,2196
1785,2217
1786,2237
1787,2246
1788,2249
1789,2246
1790,2238
1791,2224
1792,2208
1793,2190
1794,2162
1795,2145
1796,2131
1797,2128
1798,2128
1799,2135
1800,2147
1801,2157
1802,2178
1803,2196
1804,2206
1805,2204
1806,2199
1807,2192
1808,2179
1809,2167
1810,2147
1811,2125
1812,2109
1813,2102
1814,2103
1815,2107
1816,2113
1817,2128
1818,2145
1819,2165
1820,2183
1821,2189
1822,2186
1823,2177
1824,2161
1825,2144
1826,2128
1827,2099
1828,2085
1829,2076
1830,2071
1831,2067
1832,2074
1833,2087
1834,2095
1835,2113
1836,2130
1837,2140
1838,2135
1839,2129
1840,2124
1841,2112
1842,2096
1843,2085
1844,2064
1845,2054
1846,2043
1847,2045
1848,2057
1849,2065
1850,2080
1851,2097
1852,2128
1853,2153
1854,2161
1855,2163
1856,2163
1857,2159
1858,2144
1859,2129
1860,2109
1861,2091
1862,2080
1863,2080
1864,2087
1865,2096
1866,2111
1867,2118
1868,2130
1869,2151
1870,2160
1871,2160
1872,2153
1873,2142
1874,2131
1875,2121
1876,2107
1877,2084
1878,2064
1879,2046
1880,2039
1881,2039
1882,2055
1883,2064
1884,2076
1885,2100
1886,2122
1887,2137
1888,2150
1889,2160
1890,2167
1891,2178
1892,2177
1893,2179
1894,2177
1895,2189
1896,2214
1897,2259
1898,2317
1899,2386
1900,2470
1901,2567
1902,2672
1903,2786
1904,2893
1905,2998
1906,3111
1907,3219
1908,3335
1909,3455
1910,3597
1911,3745
1912,3920
1913,4095
1914,4095
1915,4095
1916,4095
1917,4095
1918,4095
1919,4095
1920,4095
1921,4095
1922,4095
1923,4095
1924,4095
1925,4095
1926,4095
1927,4095
1928,4001
1929,3760
1930,3536
1931,3344
1932,3178
1933,3024
1934,2895
1935,2797
1936,2721
1937,2667
1938,2633
1939,2622
1940,2635
1941,2663
1942,2704
1943,2752
1944,2789
1945,2821
1946,2863
1947,2899
1948,2931
1949,2958
1950,2974
1951,2987
1952,2999
1953,3002
1954,2993
1955,2981
1956,2962
1957,2941
1958,2922
1959,2898
1960,2878
1961,2851
1962,2836
1963,2832
1964,2832
1965,2843
1966,2851
1967,2866
1968,2889
1969,2911
1970,2926
1971,2922
1972,2913
1973,2898
1974,2880
1975,2859
1976,2838
1977,2804
1978,2774
1979,2753
1980,2750
1981,2749
1982,2752
1983,2756
1984,2763
1985,2783
1986,2799
1987,2801
1988,2796
1989,2779
1990,2761
1991,2735
1992,2705
1993,2675
1994,2643
1995,2623
1996,2608
1997,2599
1998,2595
1999,2597
2000,2605
2001,2609
2002,2624
2003,2640
2004,2639
2005,2639
2006,2626
2007,2616
2008,2601
2009,2577
2010,2546
2011,2514
2012,2491
2013,2471
2014,2463
2015,2453
2016,2453
2017,2457
2018,2464
2019,2479
2020,2480
2021,2470
2022,2452
2023,2432
2024,2413
2025,2388
2026,2369
2027,2339
2028,2315
2029,2291
2030,2274
2031,2271
2032,2267
2033,2267
2034,2267
2035,2287
2036,2297
2037,2293
2038,2288
2039,2271
2040,2253
2041,2224
2042,2200
2043,2169
2044,2129
2045,2107
2046,2087
2047,2077
2048,2067
2049,2062
2050,2062
2051,2062
2052,2078
2053,2079
2054,2077
2055,2065
2056,2047
2057,2029
2058,2004
2059,1987
2060,1967
2061,1935
2062,1907
2063,1903
2064,1891
2065,1885
2066,1886
2067,1889
2068,1902
2069,1918
2070,1925
2071,1922
2072,1916
2073,1904
2074,1886
2075,1872
2076,1852
2077,1825
2078,1805
2079,1792
2080,1789
2081,1785
2082,1789
2083,1794
2084,1805
2085,1823
2086,1840
2087,1843
2088,1846
2089,1841
2090,1840
2091,1824
2092,1809
2093,1795
2094,1775
2095,1759
2096,1750
2097,1750
2098,1759
2099,1767
2100,1781
2101,1797
2102,1815
2103,1838
2104,1843
2105,1846
2106,1843
2107,1843
2108,1837
2109,1821
2110,1801
2111,1776
2112,1765
2113,1757
2114,1760
2115,1763
2116,1776
2117,1786
2118,1807
2119,1832
2120,1841
2121,1854
2122,1850
2123,1843
2124,1839
2125,1826
2126,1816
2127,1799
2128,1791
2129,1782
2130,1787
2131,1798
2132,1807
2133,1820
2134,1840
2135,1863
2136,1883
2137,1890
2138,1892
2139,1889
2140,1879
2141,1860
2142,1840
2143,1815
2144,1789
2145,1766
2146,1754
2147,1751
2148,1753
2149,1759
2150,1771
2151,1779
2152,1801
2153,1819
2154,1825
2155,1831
2156,1834
2157,1837
2158,1829
2159,1821
2160,1805
2161,1786
2162,1772
2163,1754
2164,1744
2165,1744
2166,1743
2167,1744
2168,1751
2169,1766
2170,1776
2171,1771
2172,1765
2173,1757
2174,1744
2175,1726
2176,1703
2177,1678
2178,1655
2179,1639
2180,1626
2181,1622
2182,1622
2183,1622
2184,1623
2185,1635
2186,1648
2187,1648
2188,1645
2189,1633
2190,1623
2191,1606
2192,1595
2193,1574
2194,1549
2195,1527
2196,1517
2197,1514
2198,1510
2199,1513
2200,1519
2201,1522
2202,1546
2203,1555
2204,1566
2205,1568
2206,1568
2207,1561
2208,1552
2209,1535
2210,1519
2211,1492
2212,1478
2213,1471
2214,1471
2215,1479
2216,1487
2217,1499
2218,1518
2219,1535
2220,1552
2221,1552
2222,1552
2223,1547
2224,1531
2225,1517
2226,1499
2227,1475
2228,1456
2229,1441
2230,1433
2231,1431
2232,1438
2233,1446
2234,1461
2235,1481
2236,1507
2237,1514
2238,1514
2239,1511
2240,1502
2241,1488
2242,1483
2243,1471
2244,1454
2245,1443
2246,1435
2247,1437
2248,1441
2249,1450
2250,1458
2251,1472
2252,1497
2253,1520
2254,1529
2255,1535
2256,1535
2257,1535
2258,1523
2259,1512
2260,1489
2261,1463
2262,1447
2263,1440
2264,1439
2265,1454
2266,1463
2267,1479
2268,1556
2269,1563
2270,1568
2271,1584
2272,1597
2273,1617
2274,1639
2275,1647
2276,1648
2277,1642
2278,1636
2279,1627
2280,1613
2281,1599
2282,1580
2283,1574
2284,1581
2285,1586
2286,1600
2287,1613
2288,1625
2289,1648
2290,1667
2291,1683
2292,1686
2293,1685
2294,1678
2295,1666
2296,1650
2297,1632
2298,1609
2299,1587
2300,1575
2301,1574
2302,1581
2303,1600
2304,1616
2305,1643
2306,1671
2307,1693
2308,1699
2309,1703
2310,1697
2311,1691
2312,1680
2313,1666
2314,1655
2315,1639
2316,1630
2317,1633
2318,1639
2319,1647
2320,1663
2321,1681
2322,1698
2323,1727
2324,1744
2325,1746
2326,1744
2327,1738
2328,1725
2329,1710
2330,1694
2331,1669
2332,1646
2333,1629
2334,1622
2335,1625
2336,1632
2337,1646
2338,1655
2339,1675
2340,1695
2341,1712
2342,1718
2343,1722
2344,1719
2345,1716
2346,1716
2347,1710
2348,1687
2349,1679
2350,1669
2351,1670
2352,1670
2353,1677
2354,1685
2355,1695
2356,1712
2357,1728
2358,1730
2359,1728
2360,1722
2361,1713
2362,1702
2363,1690
2364,1676
2365,1655
2366,1647
2367,1647
2368,1648
2369,1653
2370,1670
2371,1687
2372,1709
2373,1736
2374,1758
2375,1765
2376,1775
2377,1765
2378,1757
2379,1743
2380,1723
2381,1700
2382,1674
2383,1658
2384,1649
2385,1653
2386,1665
2387,1679
2388,1693
2389,1712
2390,1735
2391,1749
2392,1751
2393,1750
2394,1747
2395,1743
2396,1732
2397,1722
2398,1705
2399,1687
2400,1681
2401,1680
2402,1681
2403,1690
2404,1699
2405,1711
2406,1728
2407,1744
2408,1749
2409,1743
2410,1731
2411,1713
2412,1695
2413,1676
2414,1652
2415,1629
2416,1618
2417,1617
2418,1630
2419,1648
2420,1678
2421,1709
2422,1737
2423,1770
2424,1792
2425,1799
2426,1803
2427,1793
2428,1784
2429,1767
2430,1745
2431,1719
2432,1694
2433,1671
2434,1663
2435,1664
2436,1663
2437,1671
2438,1680
2439,1703
2440,1719
2441,1742
2442,1746
2443,1748
2444,1746
2445,1742
2446,1728
2447,1716
2448,1698
2449,1683
2450,1681
2451,1689
2452,1697
2453,1713
2454,1730
2455,1746
2456,1775
2457,1793
2458,1807
2459,1807
2460,1804
2461,1800
2462,1787
2463,1773
2464,1750
2465,1726
2466,1711
2467,1697
2468,1697
2469,1699
2470,1712
2471,1725
2472,1741
2473,1766
2474,1781
2475,1789
2476,1783
2477,1776
2478,1762
2479,1748
2480,1732
2481,1716
2482,1695
2483,1686
2484,1689
2485,1703
2486,1722
2487,1743
2488,1757
2489,1777
2490,1808
2491,1825
2492,1831
2493,1836
2494,1833
2495,1826
2496,1810
2497,1797
2498,1775
2499,1753
2500,1744
2501,1737
2502,1733
2503,1741
2504,1748
2505,1761
2506,1779
2507,1805
2508,1813
2509,1817
2510,1817
2511,1811
2512,1805
2513,1794
2514,1777
2515,1758
2516,1743
2517,1734
2518,1731
2519,1744
2520,1751
2521,1761
2522,1780
2523,1802
2524,1821
2525,1825
2526,1827
2527,1820
2528,1816
2529,1809
2530,1797
2531,1777
2532,1770
2533,1764
2534,1765
2535,1774
2536,1782
2537,1796
2538,1809
2539,1833
2540,1857
2541,1873
2542,1877
2543,1883
2544,1872
2545,1862
2546,1850
2547,1839
2548,1813
2549,1794
2550,1781
2551,1776
2552,1777
2553,1783
2554,1795
2555,1808
2556,1827
2557,1845
2558,1851
2559,1853
2560,1847
2561,1841
2562,1835
2563,1825
2564,1809
2565,1792
2566,1777
2567,1767
2568,1769
2569,1776
2570,1787
2571,1800
2572,1820
2573,1845
2574,1866
2575,1879
2576,1882
2577,1879
2578,1873
2579,1870
2580,1858
2581,1847
2582,1827
2583,1814
2584,1812
2585,1813
2586,1816
2587,1823
2588,1833
2589,1847
2590,1872
2591,1885
2592,1889
2593,1889
2594,1888
2595,1881
2596,1872
2597,1858
2598,1840
2599,1823
2600,1815
2601,1810
2602,1811
2603,1817
2604,1823
2605,1834
2606,1849
2607,1869
2608,1879
2609,1886
2610,1889
2611,1891
2612,1885
2613,1882
2614,1871
2615,1855
2616,1843
2617,1841
2618,1843
2619,1854
2620,1862
2621,1877
2622,1889
2623,1914
2624,1933
2625,1945
2626,1953
2627,1962
2628,1965
2629,1967
2630,1962
2631,1954
2632,1941
2633,1931
2634,1925
2635,1935
2636,1936
2637,1951
2638,1965
2639,1974
2640,1993
2641,2006
2642,2006
2643,2006
2644,2000
2645,1993
2646,1984
2647,1979
2648,1968
2649,1951
2650,1947
2651,1952
2652,1962
2653,1974
2654,1986
2655,1999
2656,2018
2657,2032
2658,2033
2659,2027
2660,2017
2661,2005
2662,1991
2663,1982
2664,1967
2665,1946
2666,1930
2667,1924
2668,1921
2669,1929
2670,1936
2671,1941
2672,1951
2673,1968
2674,1977
2675,1973
2676,1971
2677,1959
2678,1944
2679,1933
2680,1907
2681,1887
2682,1861
2683,1843
2684,1838
2685,1836
2686,1840
2687,1847
2688,1860
2689,1875
2690,1895
2691,1901
2692,1899
2693,1887
2694,1872
2695,1857
2696,1842
2697,1825
2698,1807
2699,1789
2700,1791
2701,1793
2702,1802
2703,1826
2704,1823
2705,1827
2706,1839
2707,1846
2708,1861
2709,1881
2710,1905
2711,1923
2712,1930
2713,1933
2714,1929
2715,1921
2716,1909
2717,1891
2718,1872
2719,1861
2720,1858
2721,1858
2722,1866
2723,1873
2724,1890
2725,1908
2726,1934
2727,1958
2728,1969
2729,1974
2730,1974
2731,1968
2732,1958
2733,1946
2734,1936
2735,1906
2736,1899
2737,1883
2738,1887
2739,1892
2740,1904
2741,1919
2742,1936
2743,1967
2744,1984
2745,1995
2746,1995
2747,1992
2748,1983
2749,1969
2750,1955
2751,1936
2752,1906
2753,1902
2754,1894
2755,1894
2756,1901
2757,1916
2758,1933
2759,1949
2760,1971
2761,1990
2762,1998
2763,2000
2764,1998
2765,1994
2766,1986
2767,1984
2768,1977
2769,1975
2770,1988
2771,2012
2772,2042
2773,2084
2774,2128
2775,2190
2776,2259
2777,2337
2778,2413
2779,2483
2780,2559
2781,2640
2782,2726
2783,2815
2784,2899
2785,2988
2786,3088
2787,3200
2788,3322
2789,3454
2790,3610
2791,3790
2792,3996
2793,4095
2794,4095
2795,4095
2796,4095
2797,4095
2798,4095
2799,4095
2800,4095
2801,4095
2802,4043
2803,3847
2804,3632
2805,3437
2806,3249
2807,3087
2808,2928
2809,2800
2810,2691
2811,2603
2812,2509
2813,2445
2814,2397
2815,2368
2816,2364
2817,2375
2818,2386
2819,2405
2820,2434
2821,2469
2822,2503
2823,2541
2824,2574
2825,2595
2826,2624
2827,2647
2828,2654
2829,2654
2830,2640
2831,2631
2832,2615
2833,2594
2834,2574
2835,2538
2836,2512
2837,2499
2838,2497
2839,2501
2840,2510
2841,2519
2842,2538
2843,2559
2844,2586
2845,2591
2846,2587
2847,2577
2848,2571
2849,2548
2850,2530
2851,2507
2852,2478
2853,2450
2854,2445
2855,2435
2856,2432
2857,2432
2858,2431
2859,2439
2860,2449
2861,2448
2862,2434
2863,2416
2864,2395
2865,2377
2866,2353
2867,2339
2868,2317
2869,2298
2870,2288
2871,2287
2872,2290
2873,2293
2874,2307
2875,2320
2876,2336
2877,2352
2878,2354
2879,2349
2880,2331
2881,2305
2882,2271
2883,2240
2884,2209
2885,2173
2886,2150
2887,2138
2888,2134
2889,2141
2890,2149
2891,2159
2892,2171
2893,2187
2894,2192
2895,2192
2896,2180
2897,2163
2898,2145
2899,2126
2900,2103
2901,2078
2902,2045
2903,2032
2904,2021
2905,2015
2906,2019
2907,2019
2908,2023
2909,2032
2910,2043
2911,2053
2912,2039
2913,2031
2914,2013
2915,1991
2916,1970
2917,1947
2918,1922
2919,1901
2920,1883
2921,1876
2922,1875
2923,1879
2924,1888
2925,1900
2926,1915
2927,1936
2928,1941
2929,1942
2930,1940
2931,1936
2932,1926
2933,1911
2934,1891
2935,1863
2936,1840
2937,1823
2938,1810
2939,1807
2940,1807
2941,1810
2942,1823
2943,1845
2944,1866
2945,1873
2946,1890
2947,1900
2948,1899
2949,1901
2950,1894
2951,1884
2952,1867
2953,1857
2954,1854
2955,1852
2956,1847
2957,1850
2958,1853
2959,1859
2960,1874
2961,1885
2962,1878
2963,1878
2964,1872
2965,1863
2966,1856
2967,1845
2968,1833
2969,1819
2970,1817
2971,1819
2972,1827
2973,1843
2974,1858
2975,1874
2976,1899
2977,1917
2978,1921
2979,1921
2980,1915
2981,1910
2982,1905
2983,1897
2984,1881
2985,1860
2986,1849
2987,1842
2988,1843
2989,1858
2990,1872
2991,1898
2992,1915
2993,1942
2994,1967
2995,1978
2996,1979
2997,1976
2998,1967
2999,1949
3000,1932
3001,1907
3002,1883
3003,1863
3004,1851
3005,1845
3006,1853
3007,1860
3008,1870
3009,1885
3010,1904
3011,1919
3012,1919
3013,1921
3014,1920
3015,1918
3016,1907
3017,1899
3018,1879
3019,1866
3020,1856
3021,1855
3022,1856
3023,1865
3024,1872
3025,1886
3026,1907
3027,1931
3028,1936
3029,1943
3030,1941
3031,1938
3032,1934
3033,1925
3034,1910
3035,1893
3036,1872
3037,1862
3038,1860
3039,1862
3040,1867
3041,1872
3042,1883
3043,1905
3044,1923
3045,1927
3046,1927
3047,1915
3048,1901
3049,1876
3050,1855
3051,1828
3052,1803
3053,1780
3054,1769
3055,1765
3056,1764
3057,1765
3058,1769
3059,1775
3060,1783
3061,1792
3062,1792
3063,1791
3064,1788
3065,1776
3066,1761
3067,1744
3068,1717
3069,1691
3070,1675
3071,1663
3072,1659
3073,1658
3074,1663
3075,1675
3076,1690
3077,1712
3078,1712
3079,1706
3080,1695
3081,1680
3082,1661
3083,1639
3084,1615
3085,1579
3086,1562
3087,1546
3088,1531
3089,1534
3090,1543
3091,1552
3092,1568
3093,1599
3094,1619
3095,1631
3096,1646
3097,1639
3098,1636
3099,1625
3100,1616
3101,1599
3102,1578
3103,1563
3104,1552
3105,1552
3106,1552
3107,1553
3108,1558
3109,1575
3110,1591
3111,1602
3112,1603
3113,1605
3114,1600
3115,1591
3116,1583
3117,1566
3118,1546
3119,1523
3120,1519
3121,1518
3122,1527
3123,1535
3124,1555
3125,1571
3126,1595
3127,1616
3128,1630
3129,1632
3130,1635
3131,1629
3132,1614
3133,1600
3134,1584
3135,1559
3136,1546
3137,1531
3138,1531
3139,1545
3140,1553
3141,1572
3142,1589
3143,1616
3144,1643
3145,1658
3146,1666
3147,1669
3148,1664
3149,1655
3150,1646
3151,1622
3152,1600
3153,1588
3154,1582
3155,1583
3156,1589
3157,1597
3158,1612
3159,1627
3160,1654
3161,1675
3162,1683
3163,1692
3164,1697
3165,1698
3166,1682
3167,1678
3168,1652
3169,1627
3170,1619
3171,1617
3172,1621
3173,1627
3174,1643
3175,1659
3176,1681
3177,1703
3178,1712
3179,1712
3180,1712
3181,1707
3182,1693
3183,1680
3184,1671
3185,1649
3186,1643
3187,1634
3188,1638
3189,1647
3190,1660
3191,1673
3192,1694
3193,1717
3194,1738
3195,1744
3196,1744
3197,1741
3198,1731
3199,1717
3200,1702
3201,1686
3202,1663
3203,1650
3204,1648
3205,1650
3206,1658
3207,1666
3208,1682
3209,1703
3210,1730
3211,1747
3212,1749
3213,1754
3214,1758
3215,1755
3216,1746
3217,1737
3218,1712
3219,1691
3220,1680
3221,1677
3222,1679
3223,1685
3224,1704
3225,1719
3226,1744
3227,1767
3228,1776
3229,1776
3230,1776
3231,1769
3232,1758
3233,1751
3234,1738
3235,1717
3236,1701
3237,1693
3238,1693
3239,1696
3240,1703
3241,1714
3242,1729
3243,1758
3244,1779
3245,1795
3246,1805
3247,1811
3248,1812
3249,1808
3250,1805
3251,1791
3252,1771
3253,1750
3254,1744
3255,1737
3256,1738
3257,1735
3258,1742
3259,1751
3260,1770
3261,1777
3262,1779
3263,1776
3264,1770
3265,1755
3266,1739
3267,1719
3268,1693
3269,1676
3270,1665
3271,1663
3272,1663
3273,1675
3274,1690
3275,1708
3276,1737
3277,1764
3278,1781
3279,1789
3280,1787
3281,1781
3282,1773
3283,1760
3284,1744
3285,1724
3286,1712
3287,1703
3288,1697
3289,1703
3290,1711
3291,1717
3292,1731
3293,1751
3294,1771
3295,1783
3296,1791
3297,1792
3298,1794
3299,1787
3300,1776
3301,1761
3302,1740
3303,1725
3304,1715
3305,1715
3306,1721
3307,1730
3308,1744
3309,1763
3310,1779
3311,1799
3312,1802
3313,1795
3314,1792
3315,1777
3316,1765
3317,1746
3318,1722
3319,1705
3320,1693
3321,1691
3322,1698
3323,1708
3324,1712
3325,1729
3326,1751
3327,1773
3328,1778
3329,1785
3330,1778
3331,1776
3332,1765
3333,1757
3334,1741
3335,1719
3336,1705
3337,1693
3338,1691
3339,1695
3340,1706
3341,1718
3342,1735
3343,1758
3344,1775
3345,1781
3346,1780
3347,1779
3348,1776
3349,1773
3350,1766
3351,1755
3352,1740
3353,1733
3354,1730
3355,1733
3356,1745
3357,1757
3358,1772
3359,1790
3360,1811
3361,1827
3362,1837
3363,1833
3364,1830
3365,1822
3366,1808
3367,1793
3368,1769
3369,1744
3370,1730
3371,1719
3372,1717
3373,1720
3374,1730
3375,1746
3376,1775
3377,1798
3378,1812
3379,1818
3380,1824
3381,1823
3382,1819
3383,1809
3384,1795
3385,1776
3386,1761
3387,1752
3388,1755
3389,1763
3390,1770
3391,1781
3392,1789
3393,1803
3394,1823
3395,1827
3396,1825
3397,1818
3398,1809
3399,1795
3400,1783
3401,1772
3402,1755
3403,1745
3404,1744
3405,1749
3406,1759
3407,1773
3408,1790
3409,1806
3410,1826
3411,1841
3412,1840
3413,1835
3414,1823
3415,1811
3416,1801
3417,1780
3418,1764
3419,1746
3420,1747
3421,1755
3422,1761
3423,1773
3424,1791
3425,1813
3426,1842
3427,1872
3428,1887
3429,1890
3430,1887
3431,1875
3432,1860
3433,1840
3434,1816
3435,1789
3436,1771
3437,1767
3438,1770
3439,1779
3440,1795
3441,1812
3442,1827
3443,1849
3444,1872
3445,1877
3446,1875
3447,1879
3448,1872
3449,1855
3450,1838
3451,1811
3452,1791
3453,1776
3454,1776
3455,1783
3456,1801
3457,
3458,
3459,
3460,1821
3461,1844
3462,1870
3463,1899
3464,1911
3465,1916
3466,1911
3467,1906
3468,1893
3469,1883
3470,1868
3471,1843
3472,1822
3473,1808
3474,1799
3475,1799
3476,1807
3477,1818
3478,1829
3479,1850
3480,1871
3481,1882
3482,1875
3483,1872
3484,1861
3485,1854
3486,1841
3487,1830
3488,1813
3489,1807
3490,1803
3491,1806
3492,1808
3493,1818
3494,1830
3495,
3496,
3497,1843
3498,1871
3499,1889
3500,1898
3501,1902
3502,1897
3503,1893
3504,1885
3505,1873
3506,1856
3507,1838
3508,1822
3509,1811
3510,1808
3511,1813
3512,1822
3513,1837
3514,1852
3515,1872
3516,1887
3517,1887
3518,1925
3519,1909
3520,1901
3521,1897
3522,1906
3523,1921
3524,1937
3525,1959
3526,1980
3527,2006
3528,2032
3529,2043
3530,2046
3531,2047
3532,2035
3533,2027
3534,2013
3535,2000
3536,1980
3537,1968
3538,1990
3539,1982
3540,1967
3541,1955
3542,1936
3543,1916
3544,1901
3545,1890
3546,1887
3547,1895
3548,1904
3549,1913
3550,1923
3551,1939
3552,1951
3553,1950
3554,1937
3555,1920
3556,1900
3557,1874
3558,1851
3559,1826
3560,1801
3561,1786
3562,1780
3563,1790
3564,1797
3565,1809
3566,1825
3567,1851
3568,1874
3569,1898
3570,1904
3571,1905
3572,1904
3573,1894
3574,1879
3575,1869
3576,1843
3577,1829
3578,1819
3579,1817
3580,1872
3581,1855
3582,
3583,
3584,1845
3585,1840
3586,1840
3587,1846
3588,1847
3589,1856
3590,1873
3591,1895
3592,1916
3593,1925
3594,1932
3595,1930
3596,1934
3597,1930
3598,1921
3599,1904
3600,1891
3601,1888
3602,1888
3603,1898
3604,1907
3605,1919
3606,1934
3607,1953
3608,1968
3609,1971
3610,1973
3611,1968
3612,1958
3613,1949
3614,1937
3615,1924
3616,1908
3617,1903
3618,1906
3619,1920
3620,1936
3621,1959
3622,1983
3623,2015
3624,2064
3625,2095
3626,2115
3627,2141
3628,2165
3629,2197
3630,2231
3631,2275
3632,2319
3633,2370
3634,2442
3635,2533
3636,2637
3637,2742
3638,2857
3639,2974
3640,3107
3641,3242
3642,3376
3643,3507
3644,3661
3645,3793
3646,3962
3647,4095
3648,4095
3649,2696
3650,2691
3651,2672
3652,2651
3653,2637
3654,2627
3655,2622
3656,
3657,
3658,2621
3659,2621
3660,2627
3661,2641
3662,2659
3663,2668
3664,2663
3665,2657
3666,2645
3667,2629
3668,2610
3669,2591
3670,2559
3671,2544
3672,2534
3673,2533
3674,2533
3675,2535
3676,2542
3677,2545
3678,2557
3679,2569
3680,2559
3681,2550
3682,2539
3683,2524
3684,2510
3685,2491
3686,2474
3687,2448
3688,2439
3689,2433
3690,2432
3691,2432
3692,2437
3693,2439
3694,2446
3695,2454
3696,2453
3697,2447
3698,2433
3699,2418
3700,2403
3701,2384
3702,2368
3703,2340
3704,2320
3705,2295
3706,2290
3707,2286
3708,2281
3709,2281
3710,2283
3711,2295
3712,2305
3713,2301
3714,2288
3715,2267
3716,2247
3717,2224
3718,2197
3719,2176
3720,2151
3721,2126
3722,2107
3723,2101
3724,1863
3725,1867
3726,1874
3727,1889
3728,1904
3729,1927
3730,
3731,
3732,
3733,1942
3734,1953
3735,1952
3736,1942
3737,1934
3738,1919
3739,1904
3740,1887
3741,1859
3742,1835
3743,1823
3744,1813
3745,1815
3746,1815
3747,1827
3748,1840
3749,1860
3750,1872
3751,1886
3752,1885
3753,1875
3754,1871
3755,1859
3756,1847
3757,1830
3758,1814
3759,1807
3760,1804
3761,1809
3762,1825
3763,1840
3764,1846
3765,1864
3766,1878
3767,1888
3768,1893
3769,1891
3770,1886
3771,1878
3772,1872
3773,1862
3774,1840
3775,1825
3776,1815
3777,1815
3778,1825
3779,1839
3780,1853
3781,1869
3782,1889
3783,1909
3784,1917
3785,1918
3786,1917
3787,1914
3788,1907
3789,1903
3790,1894
3791,1877
3792,1865
3793,1856
3794,1569
3795,1579
3796,1586
3797,1598
3798,1616
3799,1639
3800,1648
3801,1648
3802,1643
3803,1634
3804,1622
3805,1609
3806,1586
3807,1564
3808,1546
3809,1526
3810,1522
3811,1520
3812,1522
3813,1532
3814,1549
3815,1572
3816,1587
3817,1593
3818,1597
3819,1598
3820,1597
3821,1593
3822,1591
3823,1584
3824,1566
3825,1566
3826,1558
3827,1565
3828,1571
3829,1579
3830,1591
3831,1603
3832,1625
3833,1634
3834,1636
3835,1629
3836,1621
3837,1613
3838,1602
3839,1593
3840,1577
3841,1558
3842,1552
3843,1552
3844,1546
3845,1554
3846,1557
3847,1565
3848,1575
3849,1591
3850,1587
3851,1590
3852,1589
3853,1584
3854,1577
3855,1566
3856,1552
3857,
3858,
3859,1529
3860,1517
3861,1509
3862,1511
3863,1513
3864,1521
3865,1547
3866,1567
3867,1600
3868,1616
3869,1629
3870,1633
3871,1633
3872,1627
3873,1614
3874,1605
3875,1591
3876,1575
3877,1562
3878,1557
3879,1562
3880,1569
3881,1584
3882,1602
3883,1626
3884,1651
3885,1669
3886,1677
3887,1680
3888,1671
3889,1663
3890,1651
3891,1633
3892,1611
3893,1591
3894,1589
3895,1595
3896,1615
3897,1629
3898,1651
3899,1680
3900,1702
3901,1730
3902,1745
3903,1753
3904,1756
3905,1745
3906,1735
3907,1719
3908,1702
3909,1677
3910,1653
3911,1644
3912,1637
3913,1637
3914,1646
3915,1651
3916,1666
3917,1689
3918,1703
3919,1709
3920,1711
3921,1703
3922,1696
3923,1683
3924,1673
3925,1662
3926,1647
3927,1635
3928,1641
3929,1648
3930,1659
3931,1667
3932,1754
3933,1744
3934,1739
3935,1723
3936,1714
3937,1696
3938,1682
3939,1677
3940,1674
3941,1680
3942,1686
3943,1700
3944,1712
3945,1730
3946,1747
3947,1760
3948,1762
3949,1765
3950,1761
3951,1750
3952,1738
3953,1718
3954,1695
3955,1683
3956,1675
3957,1677
3958,1681
3959,1691
3960,1708
3961,1722
3962,1745
3963,1762
3964,1771
3965,1774
3966,1768
3967,1757
3968,1744
3969,1728
3970,1701
3971,1680
3972,1668
3973,1669
3974,1670
3975,1680
3976,1694
3977,1701
3978,1728
3979,1749
3980,1769
3981,1773
3982,1769
3983,1761
3984,1744
3985,1728
3986,1713
3987,1695
3988,1680
3989,1671
3990,1679
3991,1680
3992,1693
3993,1707
3994,1723
3995,1744
3996,1757
3997,1762
3998,1766
3999,1762
4000,1752
4001,1741
4002,1728
4003,1711
4004,1686
4005,1675
4006,1671
4007,1670
4008,1679
4009,1689
4010,1703
4011,1722
4012,1744
4013,1761
4014,1765
4015,1767
4016,1770
4017,1755
4018,1755
4019,1743
4020,1718
4021,1696
4022,1685
4023,1680
4024,1678
4025,1681
4026,1687
4027,1695
4028,1712
4029,1732
4030,1754
4031,1753
4032,1751
4033,1747
4034,1741
4035,1730
4036,1719
4037,1703
4038,1694
4039,1690
4040,1694
4041,
4042,
4043,1705
4044,1714
4045,1729
4046,1743
4047,1773
4048,1792
4049,1803
4050,1805
4051,1801
4052,1792
4053,1776
4054,1759
4055,1741
4056,1717
4057,1707
4058,1702
4059,1698
4060,1703
4061,1709
4062,1714
4063,1738
4064,1756
4065,1773
4066,1772
4067,1767
4068,1759
4069,1747
4070,1738
4071,1727
4072,1707
4073,1693
4074,1689
4075,1689
4076,1699
4077,1712
4078,1725
4079,1744
4080,1770
4081,1792
4082,1809
4083,1814
4084,1814
4085,1810
4086,1803
4087,1790
4088,1771
4089,1744
4090,1726
4091,1719
4092,1722
4093,1729
4094,1738
4095,1745
4096,1759
4097,1776
4098,1789
4099,1790
4100,1791
4101,1783
4102,1775
4103,1764
4104,1750
4105,1744
4106,1727
4107,1724
4108,
4109,
4110,1767
4111,1779
4112,1803
4113,1825
4114,1825
4115,1839
4116,1839
4117,1834
4118,1827
4119,1815
4120,1806
4121,1787
4122,1776
4123,1775
4124,1776
4125,1781
4126,1791
4127,1805
4128,1822
4129,1843
4130,1856
4131,1862
4132,1859
4133,1857
4134,1855
4135,1840
4136,1826
4137,1806
4138,1782
4139,1772
4140,1776
4141,1777
4142,1788
4143,1799
4144,1812
4145,1836
4146,1854
4147,1860
4148,1863
4149,1862
4150,1856
4151,1846
4152,1842
4153,1830
4154,1813
4155,1799
4156,1787
4157,1779
4158,1776
4159,1786
4160,1795
4161,1809
4162,1835
4163,1859
4164,1866
4165,1872
4166,1874
4167,1870
4168,1856
4169,1840
4170,1815
4171,1789
4172,1774
4173,1762
4174,1866
4175,1845
4176,1815
4177,1802
4178,1793
4179,1796
4180,1809
4181,1824
4182,1849
4183,1872
4184,1901
4185,1927
4186,1943
4187,1952
4188,1958
4189,1959
4190,1955
4191,1943
4192,1926
4193,1905
4194,1888
4195,1877
4196,1879
4197,1872
4198,1881
4199,1898
4200,1919
4201,1952
4202,1983
4203,2000
4204,2018
4205,2030
4206,2034
4207,2032
4208,2026
4209,2006
4210,1989
4211,1983
4212,1981
4213,1981
4214,1985
4215,1995
4216,2002
4217,2020
4218,2038
4219,2045
4220,2047
4221,2046
4222,2045
4223,2038
4224,2029
4225,2012
4226,1998
4227,1984
4228,1973
4229,1971
4230,1971
4231,1971
4232,1977
4233,1984
4234,1998
4235,2004
4236,2009
4237,2000
4238,1989
4239,1981
4240,1959
4241,1941
4242,1923
4243,1907
4244,1890
4245,1889
4246,1898
4247,1904
4248,1911
4249,1924
4250,1937
4251,1955
4252,1969
4253,1970
4254,1963
4255,1947
4256,1942
4257,1919
4258,1907
4259,1885
4260,1859
4261,1847
4262,1842
4263,1842
4264,1847
4265,1857
4266,1867
4267,1887
4268,1906
4269,1916
4270,1919
4271,1909
4272,1904
4273,1891
4274,1880
4275,1858
4276,1835
4277,1821
4278,1813
4279,1817
4280,1824
4281,1834
4282,1854
4283,1867
4284,1887
4285,1903
4286,1909
4287,
4288,
4289,1904
4290,1903
4291,1899
4292,1894
4293,1886
4294,1875
4295,1868
4296,1863
4297,1861
4298,1866
4299,1867
4300,1872
4301,1873
4302,1887
4303,1905
4304,1917
4305,1913
4306,1914
4307,1904
4308,1896
4309,1883
4310,1872
4311,1853
4312,1840
4313,1833
4314,1837
4315,1841
4316,1864
4317,1870
4318,1888
4319,1909
4320,1927
4321,1935
4322,1931
4323,1920
4324,1907
4325,1901
4326,1887
4327,1876
4328,1859
4329,1850
4330,1847
4331,1852
4332,1858
4333,1867
4334,1879
4335,1893
4336,1918
4337,1937
4338,1943
4339,1951
4340,1945
4341,1937
4342,1926
4343,1916
4344,1904
4345,1890
4346,1884
4347,1887
4348,2074
4349,2090
4350,2105
4351,2123
4352,2135
4353,2162
4354,2203
4355,2261
4356,2335
4357,2425
4358,2513
4359,2624
4360,2745
4361,2867
4362,2990
4363,3099
4364,3212
4365,3325
4366,3440
4367,3572
4368,3696
4369,3835
4370,3986
4371,4095
4372,4095
4373,4095
4374,4095
4375,4095
4376,4095
4377,4095
4378,4095
4379,4095
4380,4095
4381,4095
4382,4095
4383,4077
4384,3869
4385,3621
4386,3391
4387,3201
4388,3024
4389,2868
4390,2736
4391,2627
4392,2539
4393,2500
4394,2480
4395,2481
4396,2496
4397,2526
4398,2576
4399,2622
4400,2669
4401,2703
4402,2733
4403,2745
4404,2762
4405,2774
4406,2795
4407,2802
4408,2817
4409,2829
4410,2849
4411,2863
4412,2864
4413,2855
4414,2835
4415,2815
4416,2793
4417,2766
4418,2739
4419,2711
4420,2695
4421,2689
4422,2690
4423,2691
4424,2701
4425,2707
4426,2722
4427,2746
4428,2751
4429,2742
4430,2734
4431,2720
4432,2697
4433,2673
4434,2641
4435,2612
4436,2587
4437,2576
4438,2555
4439,2545
4440,2539
4441,2543
4442,2544
4443,2559
4444,2581
4445,2589
4446,2587
4447,2587
4448,2567
4449,2544
4450,2527
4451,2499
4452,2473
4453,2450
4454,2433
4455,2426
4456,2426
4457,2421
4458,2423
4459,2432
4460,2447
4461,
4462,
4463,
4464,2453
4465,2457
4466,2443
4467,2423
4468,2405
4469,2375
4470,2349
4471,2313
4472,2277
4473,2250
4474,2235
4475,2227
4476,2224
4477,2233
4478,2243
4479,2257
4480,2277
4481,2282
4482,2275
4483,2266
4484,2246
4485,2225
4486,2204
4487,2178
4488,2146
4489,2111
4490,2090
4491,2069
4492,2065
4493,2068
4494,2071
4495,2084
4496,2096
4497,2112
4498,2110
4499,2103
4500,2095
4501,2081
4502,2064
4503,2053
4504,2032
4505,2007
4506,1987
4507,1973
4508,1964
4509,1954
4510,1953
4511,1958
4512,1963
4513,1981
4514,1989
4515,1987
4516,1983
4517,1969
4518,1956
4519,1936
4520,1917
4521,1851
4522,1837
4523,1823
4524,1815
4525,1817
4526,1822
4527,1828
4528,1837
4529,1847
4530,1869
4531,1890
4532,1901
4533,1904
4534,1904
4535,1900
4536,1887
4537,1871
4538,1855
4539,1829
4540,1808
4541,1793
4542,1792
4543,1799
4544,1808
4545,1821
4546,1839
4547,1868
4548,1890
4549,1902
4550,1904
4551,1904
4552,1893
4553,1879
4554,1867
4555,1846
4556,1826
4557,1849
4558,1852
4559,1858
4560,1872
4561,1898
4562,1911
4563,1936
4564,1955
4565,1964
4566,1955
4567,1947
4568,1936
4569,1920
4570,1903
4571,1878
4572,1854
4573,1836
4574,1827
4575,1823
4576,1823
4577,1825
4578,1831
4579,1840
4580,1854
4581,1865
4582,1866
4583,1859
4584,1851
4585,1850
4586,1829
4587,1808
4588,1777
4589,1750
4590,1732
4591,1718
4592,1709
4593,1709
4594,1712
4595,1727
4596,1729
4597,1744
4598,1745
4599,1743
4600,1736
4601,1723
4602,1707
4603,1685
4604,1663
4605,1633
4606,1614
4607,1602
4608,1603
4609,1600
4610,1615
4611,1616
4612,1628
4613,1647
4614,1659
4615,1663
4616,1661
4617,1661
4618,1657
4619,1649
4620,1636
4621,1616
4622,1595
4623,1574
4624,1558
4625,1552
4626,1551
4627,1554
4628,1569
4629,1584
4630,
4631,
4632,1602
4633,1616
4634,1616
4635,1614
4636,1610
4637,1600
4638,1590
4639,1581
4640,1563
4641,1546
4642,1533
4643,1531
4644,1531
4645,1546
4646,1552
4647,1563
4648,1583
4649,1600
4650,1614
4651,1614
4652,1609
4653,1600
4654,1585
4655,1573
4656,1563
4657,1535
4658,1520
4659,1516
4660,1519
4661,1525
4662,1546
4663,1555
4664,1574
4665,1596
4666,1615
4667,1624
4668,1626
4669,1618
4670,1611
4671,1591
4672,1583
4673,1561
4674,1535
4675,1527
4676,1526
4677,1533
4678,1548
4679,1559
4680,1579
4681,1598
4682,1619
4683,1639
4684,1646
4685,1647
4686,1645
4687,1639
4688,1635
4689,1632
4690,1613
4691,1709
4692,1705
4693,1700
4694,1701
4695,1693
4696,1680
4697,1667
4698,1661
4699,1659
4700,1669
4701,1677
4702,1685
4703,1699
4704,1712
4705,1738
4706,1746
4707,1753
4708,1752
4709,1743
4710,1733
4711,1723
4712,1712
4713,1693
4714,1677
4715,1665
4716,1662
4717,1665
4718,1670
4719,1680
4720,1695
4721,1716
4722,1741
4723,1751
4724,1753
4725,1749
4726,1744
4727,1731
4728,1715
4729,1699
4730,1675
4731,1657
4732,1648
4733,1648
4734,1659
4735,1674
4736,1693
4737,1714
4738,1745
4739,1773
4740,1785
4741,1792
4742,1792
4743,1788
4744,1791
4745,1782
4746,1766
4747,1748
4748,1735
4749,1730
4750,1727
4751,1731
4752,1739
4753,1744
4754,1764
4755,1783
4756,1803
4757,1810
4758,1810
4759,1811
4760,1808
4761,1798
4762,1786
4763,1769
4764,1755
4765,1743
4766,1740
4767,1742
4768,1744
4769,1758
4770,1766
4771,1788
4772,1807
4773,1815
4774,1818
4775,1823
4776,1809
4777,1797
4778,1778
4779,1765
4780,1744
4781,1733
4782,1727
4783,1734
4784,1743
4785,1754
4786,1771
4787,1789
4788,1813
4789,1840
4790,1850
4791,1855
4792,1853
4793,1845
4794,1835
4795,1813
4796,1792
4797,1766
4798,1744
4799,1733
4800,1732
4801,1732
4802,1740
4803,1747
4804,1768
4805,1791
4806,1808
4807,1818
4808,
4809,
4810,1811
4811,1809
4812,1805
4813,1793
4814,1775
4815,1761
4816,1745
4817,1735
4818,1732
4819,1735
4820,1741
4821,1751
4822,1770
4823,1787
4824,1806
4825,1810
4826,1813
4827,1807
4828,1797
4829,1782
4830,1770
4831,1755
4832,1735
4833,1721
4834,1717
4835,1719
4836,1730
4837,1742
4838,1755
4839,1776
4840,1805
4841,1830
4842,1844
4843,1851
4844,1853
4845,1841
4846,1835
4847,1821
4848,1801
4849,1779
4850,1763
4851,1759
4852,1760
4853,1766
4854,1775
4855,1786
4856,1805
4857,1826
4858,1840
4859,1843
4860,1842
4861,1839
4862,1835
4863,1825
4864,1821
4865,1804
4866,1788
4867,1777
4868,1775
4869,1771
4870,1771
4871,1777
4872,1904
4873,1904
4874,1897
4875,1883
4876,1872
4877,1862
4878,1850
4879,1833
4880,1823
4881,1816
4882,1820
4883,1830
4884,1833
4885,1850
4886,1861
4887,1887
4888,1908
4889,1914
4890,1918
4891,1914
4892,1907
4893,1901
4894,1878
4895,1857
4896,1838
4897,1827
4898,1824
4899,1824
4900,1834
4901,1846
4902,1857
4903,1883
4904,1905
4905,1914
4906,1915
4907,1914
4908,1911
4909,1904
4910,1899
4911,1883
4912,1863
4913,1847
4914,1840
4915,1840
4916,1840
4917,1843
4918,1850
4919,1860
4920,1875
4921,1898
4922,1904
4923,1907
4924,1909
4925,1906
4926,1903
4927,1891
4928,1874
4929,1854
4930,1841
4931,1843
4932,1851
4933,1858
4934,1869
4935,1873
4936,1886
4937,1904
4938,1907
4939,1908
4940,1905
4941,1900
4942,
4943,
4944,1892
4945,1890
4946,1883
4947,1867
4948,1855
4949,1849
4950,1849
4951,1859
4952,1872
4953,1883
4954,1898
4955,1915
4956,1933
4957,1938
4958,1939
4959,1935
4960,1929
4961,1919
4962,1913
4963,1902
4964,1883
4965,1871
4966,1866
4967,1867
4968,1872
4969,1877
4970,1884
4971,1895
4972,1911
4973,1923
4974,1933
4975,1930
4976,1925
4977,1919
4978,1907
4979,1899
4980,1885
4981,1872
4982,1865
4983,1867
4984,1873
4985,1882
4986,1900
4987,1919
4988,1937
4989,1967
4990,1984
4991,1986
4992,1991
4993,1982
4994,1979
4995,1970
4996,1959
4997,1937
4998,1930
4999,1931
5000,1938
5001,1951
5002,1971
5003,1995
5004,2014
5005,2035
5006,2003
5007,2013
5008,2021
5009,2042
5010,2055
5011,2045
5012,2033
5013,2023
5014,2009
5015,2000
5016,1984
5017,1968
5018,1950
5019,1936
5020,1934
5021,1931
5022,1935
5023,1938
5024,1951
5025,1967
5026,1982
5027,1984
5028,1981
5029,1969
5030,1959
5031,1943
5032,1929
5033,1904
5034,1874
5035,1856
5036,1841
5037,1841
5038,1853
5039,1864
5040,1883
5041,1901
5042,1924
5043,1947
5044,1959
5045,1967
5046,1966
5047,1964
5048,1952
5049,1938
5050,1923
5051,1901
5052,1879
5053,1873
5054,1872
5055,1877
5056,1882
5057,1896
5058,1905
5059,1922
5060,1933
5061,1935
5062,1927
5063,1924
5064,1921
5065,1915
5066,1904
5067,1894
5068,1872
5069,1869
5070,1869
5071,1863
5072,1867
5073,1871
5074,1873
5075,1889
5076,1907
5077,1919
5078,1923
5079,1923
5080,1922
5081,1917
5082,1915
5083,1905
5084,1892
5085,1878
5086,1875
5087,1874
5088,1879
5089,1892
5090,1904
5091,1920
5092,1949
5093,1963
5094,1977
5095,1982
5096,1979
5097,1972
5098,1961
5099,1946
5100,1927
5101,1904
5102,1894
5103,1876
5104,1875
5105,1882
5106,1884
5107,1893
5108,1909
5109,1931
5110,1947
5111,1953
5112,1959
5113,1957
5114,1952
5115,1942
5116,1925
5117,1908
5118,1891
5119,1883
5120,1890
5121,1900
5122,1916
5123,1923
5124,1948
5125,1968
5126,1996
5127,2003
5128,2005
5129,2000
5130,2000
5131,1989
5132,1979
5133,1964
5134,1937
5135,1927
5136,1926
5137,1936
5138,1947
5139,1967
5140,1990
5141,2023
5142,2061
5143,2105
5144,2145
5145,2177
5146,2215
5147,2256
5148,2297
5149,2341
5150,2391
5151,2444
5152,2510
5153,2591
5154,2682
5155,2789
5156,2896
5157,3015
5158,3145
5159,3279
5160,3408
5161,3537
5162,3683
5163,3833
5164,3988
5165,4095
5166,4095
5167,4095
5168,4095
5169,4095
5170,4095
5171,4095
5172,4095
5173,4095
5174,4095
5175,4055
5176,3894
5177,3682
5178,3467
5179,3275
5180,3090
5181,2919
5182,2763
5183,2623
5184,2491
5185,2401
5186,2343
5187,2321
5188,2320
5189,2349
5190,2384
5191,2442
5192,2502
5193,2570
5194,2618
5195,2650
5196,2674
5197,2687
5198,2687
5199,2679
5200,2657
5201,2629
5202,2609
5203,2591
5204,2582
5205,2577
5206,2575
5207,2578
5208,2587
5209,2604
5210,2612
5211,2611
5212,2609
5213,2599
5214,2593
5215,2581
5216,2573
5217,2551
5218,2531
5219,2523
5220,2519
5221,2522
5222,
5223,
5224,2529
5225,2531
5226,2538
5227,2541
5228,2543
5229,2538
5230,2518
5231,2499
5232,2489
5233,2474
5234,2459
5235,2443
5236,2416
5237,2398
5238,2384
5239,2384
5240,2385
5241,2394
5242,2401
5243,2411
5244,2422
5245,2431
5246,2427
5247,2419
5248,2414
5249,2394
5250,2371
5251,2350
5252,2315
5253,2286
5254,2258
5255,2243
5256,2240
5257,2235
5258,2229
5259,2231
5260,2231
5261,2239
5262,2242
5263,2231
5264,2224
5265,2210
5266,2193
5267,2177
5268,2160
5269,2132
5270,2111
5271,2093
5272,2077
5273,2073
5274,2069
5275,2070
5276,2077
5277,2090
5278,2100
5279,2097
5280,2093
5281,2074
5282,2058
5283,2029
5284,2000
5285,1977
5286,1959
5287,1939
5288,1930
5289,1911
5290,1882
5291,1868
5292,1854
5293,1847
5294,1845
5295,1846
5296,1853
5297,1863
5298,1877
5299,1886
5300,1883
5301,1876
5302,1858
5303,1853
5304,1841
5305,1834
5306,1823
5307,1808
5308,1808
5309,1813
5310,1829
5311,1842
5312,1858
5313,1872
5314,1891
5315,1904
5316,1910
5317,1907
5318,1906
5319,1891
5320,1878
5321,1863
5322,1840
5323,1811
5324,1793
5325,1785
