,mV
0,
1,1858
2,1843
3,1833
4,1823
5,1817
6,1815
7,1822
8,1827
9,1838
10,1840
11,1869
12,1881
13,1887
14,1888
15,1883
16,1881
17,1873
18,1865
19,1851
20,1840
21,1831
22,1830
23,1950
24,1936
25,1931
26,
27,
28,1925
29,1923
30,1921
31,1918
32,1916
33,1905
34,1899
35,1891
36,1879
37,1872
38,1866
39,1852
40,1840
41,1840
42,1837
43,1840
44,1839
45,1842
46,1846
47,1851
48,1856
49,1853
50,1840
51,1827
52,1819
53,1809
54,1804
55,1797
56,1787
57,1780
58,1781
59,1787
60,1793
61,1801
62,1809
63,1821
64,1829
65,1840
66,1836
67,1827
68,1825
69,1822
70,1809
71,1808
72,1802
73,1794
74,1793
75,1801
76,1808
77,1808
78,1825
79,1839
80,1849
81,1858
82,1868
83,1870
84,1869
85,1863
86,1855
87,1843
88,1828
89,1811
90,1797
91,1789
92,1788
93,1791
94,1801
95,1814
96,1834
97,1849
98,1872
99,1885
100,1891
101,1895
102,1895
103,1888
104,1879
105,1871
106,1853
107,1840
108,1833
109,1831
110,1840
111,1844
112,1855
113,1872
114,1886
115,1901
116,1905
117,1904
118,1902
119,1896
120,1885
121,1872
122,1861
123,1849
124,1843
125,1984
126,2017
127,2062
128,2113
129,2176
130,2245
131,2320
132,2401
133,2480
134,
135,2567
136,2655
137,2746
138,2839
139,2934
140,3031
141,3136
142,3242
143,3345
144,3460
145,3578
146,3707
147,3839
148,3957
149,4095
150,4095
151,4095
152,4016
153,3904
154,3695
155,3479
156,3262
157,3024
158,2783
159,2541
160,2319
161,2102
162,1905
163,1740
164,1587
165,1460
166,1365
167,1297
168,1250
169,1229
170,1234
171,1264
172,1306
173,1364
174,1424
175,1495
176,1581
177,1651
178,1723
179,1779
180,1835
181,1874
182,1914
183,1945
184,1959
185,1968
186,1971
187,1969
188,1971
189,1968
190,1963
191,1949
192,1939
193,1936
194,1936
195,
196,1933
197,1933
198,1934
199,1936
200,1943
201,1945
202,1941
203,1936
204,1931
205,1915
206,1905
207,1900
208,1882
209,1871
210,1866
211,1863
212,1862
213,1872
214,1876
215,1888
216,1901
217,1911
218,1919
219,1918
220,1915
221,1911
222,1907
223,1901
224,1895
225,1882
226,1872
227,1872
228,1875
229,1887
230,1890
231,1902
232,1905
233,1922
234,1936
235,1938
236,1938
237,1938
238,1936
239,1930
240,1921
241,1911
242,1904
243,1898
244,1899
245,1904
246,1907
247,1917
248,1924
249,1933
250,1941
251,1946
252,1946
253,1942
254,1937
255,1930
256,1923
257,
258,1920
259,1907
260,1903
261,1899
262,1901
263,1904
264,1905
265,1915
266,1927
267,1947
268,1961
269,1969
270,1974
271,1975
272,1983
273,1981
274,1978
275,1969
276,1958
277,1947
278,1941
279,1941
280,1943
281,1943
282,1951
283,1953
284,1963
285,1968
286,1965
287,1963
288,1959
289,1959
290,1954
291,1950
292,1942
293,1935
294,1935
295,1937
296,1943
297,1954
298,1967
299,1979
300,1993
301,2011
302,2023
303,2031
304,2029
305,2028
306,2025
307,2022
308,2015
309,2006
310,1998
311,1993
312,1995
313,1998
314,2001
315,2006
316,2017
317,2027
318,2038
319,2045
320,2047
321,2043
322,2042
323,2039
324,2039
325,2037
326,2030
327,2017
328,2023
329,2029
330,2033
331,2036
332,2043
333,2058
334,2065
335,2084
336,2096
337,2117
338,2127
339,2131
340,2128
341,2126
342,2118
343,2107
344,2096
345,2079
346,2064
347,2059
348,2054
349,2053
350,2054
351,2059
352,2064
353,2067
354,2077
355,2077
356,2070
357,2065
358,2063
359,2057
360,2044
361,2038
362,2031
363,2024
364,2023
365,2020
366,2023
367,2030
368,2035
369,2042
370,2046
371,2047
372,2039
373,2033
374,2025
375,2013
376,1999
377,1984
378,1963
379,1941
380,1926
381,1918
382,1917
383,1916
384,1919
385,1925
386,1935
387,1950
388,1953
389,1950
390,1943
391,1904
392,1883
393,1859
394,1839
395,1822
396,1811
397,
398,1808
399,1808
400,1808
401,1814
402,1830
403,1840
404,1840
405,1838
406,1833
407,1824
408,1811
409,1797
410,1777
411,1758
412,1744
413,1737
414,1729
415,1728
416,1731
417,1740
418,1744
419,1760
420,1769
421,1764
422,1762
423,1757
424,1745
425,1739
426,1728
427,1715
428,1703
429,1699
430,1701
431,1705
432,1710
433,1719
434,1727
435,1739
436,1754
437,1765
438,1772
439,1766
440,1765
441,1762
442,1754
443,1744
444,1729
445,1712
446,1712
447,1733
448,1743
449,1756
450,1771
451,1774
452,1776
453,1776
454,1776
455,1775
456,1767
457,
458,1758
459,1747
460,1742
461,1738
462,1744
463,1744
464,1751
465,1757
466,1763
467,1775
468,1779
469,1780
470,1777
471,1777
472,1775
473,1765
474,1755
475,1744
476,1741
477,1741
478,1745
479,1755
480,1766
481,1779
482,1789
483,1804
484,1817
485,1823
486,1823
487,1824
488,1817
489,1814
490,1807
491,1799
492,1787
493,1776
494,1775
495,1776
496,1783
497,1791
498,1799
499,1810
500,1821
501,1835
502,1837
503,1838
504,1835
505,1825
506,1819
507,1807
508,1791
509,1776
510,1765
511,1770
512,1776
513,1783
514,1793
515,1808
516,1823
517,1840
518,
519,1854
520,1858
521,1856
522,1855
523,1850
524,1837
525,1825
526,1814
527,1803
528,1795
529,1791
530,1786
531,1791
532,1795
533,1805
534,1815
535,1834
536,1839
537,1843
538,1843
539,1843
540,1843
541,1840
542,1840
543,1827
544,1818
545,1810
546,1813
547,1819
548,1823
549,1830
550,1840
551,1851
552,1861
553,1862
554,1858
555,1855
556,1857
557,1851
558,1839
559,1826
560,1811
561,1801
562,1793
563,1791
564,1793
565,1799
566,1802
567,1818
568,1817
569,1812
570,1811
571,1808
572,1803
573,1798
574,1793
575,1787
576,1780
577,1771
578,
579,1775
580,1778
581,1782
582,1794
583,1800
584,1808
585,1826
586,1834
587,1840
588,1835
589,1831
590,1824
591,1818
592,1808
593,1795
594,1786
595,1779
596,1779
597,1777
598,1776
599,1779
600,1789
601,1798
602,1809
603,1811
604,1814
605,1817
606,1819
607,1814
608,1808
609,1796
610,1783
611,1775
612,1776
613,1776
614,1775
615,1779
616,1787
617,1800
618,1813
619,1820
620,1826
621,1822
622,1816
623,1810
624,1803
625,1794
626,1779
627,1771
628,1765
629,1767
630,1776
631,1783
632,1791
633,1799
634,1809
635,1826
636,1829
637,1831
638,
639,1827
640,1825
641,1821
642,1815
643,1808
644,1799
645,1789
646,1777
647,1779
648,1786
649,1789
650,1791
651,1803
652,1809
653,1826
654,1819
655,1826
656,1818
657,1814
658,1808
659,1801
660,1792
661,1782
662,1780
663,1786
664,1791
665,1797
666,1808
667,1815
668,1828
669,1840
670,1846
671,1841
672,1838
673,1840
674,1833
675,1826
676,1818
677,1808
678,1802
679,1795
680,1798
681,1803
682,1808
683,1815
684,1823
685,1838
686,1840
687,1834
688,1821
689,1809
690,1801
691,1787
692,1780
693,1777
694,1778
695,1787
696,1791
697,1795
698,1806
699,
700,1821
701,1838
702,1838
703,1840
704,1838
705,1838
706,1829
707,1821
708,1808
709,1805
710,1801
711,1803
712,1808
713,1812
714,1819
715,1826
716,1837
717,1844
718,1854
719,1855
720,1854
721,1854
722,1852
723,1845
724,1840
725,1835
726,1825
727,1822
728,1821
729,1825
730,1829
731,1840
732,1847
733,1857
734,1866
735,1859
736,1867
737,1856
738,1853
739,1845
740,1838
741,1829
742,1809
743,1803
744,1792
745,1798
746,1798
747,1805
748,1811
749,1827
750,1850
751,1872
752,1887
753,1895
754,1901
755,1903
756,1894
757,1889
758,1879
759,1872
760,
761,1867
762,1872
763,1879
764,1898
765,1907
766,1934
767,1951
768,1973
769,1989
770,1992
771,1987
772,1985
773,1977
774,1968
775,1958
776,1945
777,1933
778,1925
779,1919
780,1922
781,1927
782,1937
783,1946
784,1957
785,1975
786,1987
787,1998
788,2002
789,2008
790,2005
791,2000
792,1997
793,1983
794,1968
795,1958
796,1949
797,1938
798,1935
799,1930
800,1929
801,1923
802,1925
803,1917
804,1910
805,1901
806,1893
807,1883
808,1872
809,1830
810,1828
811,1826
812,1828
813,1831
814,1839
815,
816,1845
817,1855
818,1861
819,1859
820,1851
821,1845
822,1831
823,1823
824,1809
825,1797
826,1781
827,1768
828,1767
829,1771
830,1776
831,1782
832,1791
833,1802
834,1811
835,1819
836,1821
837,1825
838,1819
839,1816
840,1808
841,1803
842,1783
843,1775
844,1767
845,1765
846,1766
847,1765
848,1777
849,1786
850,1799
851,1814
852,1823
853,1825
854,1823
855,1822
856,1823
857,1809
858,1806
859,1789
860,1782
861,1782
862,1786
863,1791
864,1791
865,1823
866,1829
867,1826
868,1829
869,1826
870,1822
871,1820
872,1812
873,1806
874,1797
875,
876,1795
877,1794
878,1798
879,1807
880,1809
881,1819
882,1837
883,1843
884,1847
885,1842
886,1842
887,1839
888,1835
889,1824
890,1812
891,1808
892,1806
893,1813
894,1825
895,1835
896,1843
897,1856
898,1872
899,1875
900,1885
901,1884
902,1881
903,1879
904,1872
905,1869
906,1863
907,1855
908,1849
909,1845
910,1856
911,1856
912,1866
913,1873
914,1881
915,1893
916,1902
917,1899
918,1891
919,1889
920,1876
921,1869
922,1867
923,1861
924,1861
925,1872
926,1888
927,1906
928,1935
929,1962
930,1993
931,2031
932,2081
933,2127
934,2176
935,2237
936,2305
937,2373
938,2447
939,2512
940,2593
941,2672
942,2758
943,2847
944,2940
945,3041
946,3146
947,3249
948,3362
949,3456
950,3539
951,3646
952,3710
953,3776
954,3809
955,3792
956,3715
957,3613
958,3472
959,3312
960,3129
961,2926
962,2714
963,2503
964,2305
965,2112
966,1920
967,1744
968,1591
969,1456
970,1347
971,1262
972,1206
973,1179
974,1184
975,1207
976,1250
977,1310
978,1377
979,1453
980,1522
981,1603
982,1672
983,1728
984,1775
985,1815
986,1840
987,1862
988,1872
989,1872
990,1902
991,1911
992,1925
993,
994,1940
995,1945
996,1941
997,1941
998,1934
999,1932
1000,1922
1001,1911
1002,1901
1003,1887
1004,1882
1005,1882
1006,1888
1007,1890
1008,1895
1009,1904
1010,1915
1011,1925
1012,1927
1013,1930
1014,1929
1015,1921
1016,1920
1017,1916
1018,1904
1019,1898
1020,1891
1021,1891
1022,1895
1023,1899
1024,1907
1025,1917
1026,1931
1027,1943
1028,1955
1029,1959
1030,1951
1031,1949
1032,1941
1033,1933
1034,1915
1035,1899
1036,1882
1037,1871
1038,1865
1039,1868
1040,1869
1041,1873
1042,1883
1043,1903
1044,1918
1045,1930
1046,1936
1047,1939
1048,1947
1049,1950
1050,
1051,1947
1052,1945
1053,1938
1054,1936
1055,1937
1056,1937
1057,1940
1058,1941
1059,1943
1060,1951
1061,1966
1062,1970
1063,1972
1064,1972
1065,1970
1066,1968
1067,1962
1068,1952
1069,1941
1070,1936
1071,1930
1072,1936
1073,1943
1074,1953
1075,1967
1076,1975
1077,1987
1078,2000
1079,2014
1080,2015
1081,2014
1082,2006
1083,2001
1084,1991
1085,1985
1086,1971
1087,1962
1088,1958
1089,1959
1090,1968
1091,1973
1092,1981
1093,1987
1094,2000
1095,2015
1096,2021
1097,2021
1098,2017
1099,2015
1100,2010
1101,2003
1102,1997
1103,1983
1104,1977
1105,1979
1106,1986
1107,1988
1108,2000
1109,2015
1110,2029
1111,2045
1112,2064
1113,2074
1114,2075
1115,2074
1116,2069
1117,2066
1118,2064
1119,2055
1120,2042
1121,2032
1122,2031
1123,2032
1124,2035
1125,2045
1126,2061
1127,2065
1128,2078
1129,2083
1130,2086
1131,2080
1132,2076
1133,2071
1134,2067
1135,2064
1136,2055
1137,2045
1138,2045
1139,2043
1140,2055
1141,2064
1142,2077
1143,2091
1144,2106
1145,2119
1146,2128
1147,2133
1148,2135
1149,2134
1150,2129
1151,2123
1152,2112
1153,2096
1154,2088
1155,2083
1156,2080
1157,2083
1158,2083
1159,2088
1160,2096
1161,2103
1162,2112
1163,2112
1164,2111
1165,2099
1166,2098
1167,2093
1168,2085
1169,2071
1170,2065
1171,2058
1172,2063
1173,2064
1174,2074
1175,2089
1176,2096
1177,2108
1178,2119
1179,2129
1180,2129
1181,2125
1182,2117
1183,2112
1184,2106
1185,2096
1186,2082
1187,2065
1188,2059
1189,2059
1190,2062
1191,2064
1192,2074
1193,2079
1194,2093
1195,2097
1196,2102
1197,2096
1198,2090
1199,2081
1200,2069
1201,2047
1202,2030
1203,2003
1204,1984
1205,1974
1206,1967
1207,1967
1208,1967
1209,1968
1210,1971
1211,1984
1212,1988
1213,1986
1214,1983
1215,1975
1216,1965
1217,1952
1218,1935
1219,1915
1220,1895
1221,1876
1222,1863
1223,1861
1224,1857
1225,1856
1226,1861
1227,1872
1228,1882
1229,1889
1230,1887
1231,1884
1232,1878
1233,1871
1234,1856
1235,1843
1236,1828
1237,1802
1238,1790
1239,1776
1240,1773
1241,1762
1242,1767
1243,1773
1244,1781
1245,1793
1246,1796
1247,1798
1248,1795
1249,1795
1250,1796
1251,1791
1252,1780
1253,1769
1254,1754
1255,1747
1256,1742
1257,1739
1258,1743
1259,1744
1260,1757
1261,1771
1262,1785
1263,1790
1264,1793
1265,1797
1266,1793
1267,1792
1268,1780
1269,1766
1270,1751
1271,1744
1272,1742
1273,1738
1274,1744
1275,1749
1276,1757
1277,1763
1278,1775
1279,1778
1280,1776
1281,1771
1282,1767
1283,1763
1284,1759
1285,1745
1286,1739
1287,1736
1288,1735
1289,1743
1290,1751
1291,1758
1292,1771
1293,1783
1294,1801
1295,1812
1296,1810
1297,1815
1298,1820
1299,1818
1300,1812
1301,1808
1302,1802
1303,1794
1304,1795
1305,1793
1306,1797
1307,1801
1308,1807
1309,1811
1310,1823
1311,1835
1312,1833
1313,1829
1314,1825
1315,1817
1316,1814
1317,1812
1318,1808
1319,1807
1320,1802
1321,1798
1322,1799
1323,1803
1324,1808
1325,1818
1326,1829
1327,1845
1328,1857
1329,1859
1330,1857
1331,1857
1332,1856
1333,1851
1334,1841
1335,1833
1336,1829
1337,1824
1338,1829
1339,1837
1340,1843
1341,1855
1342,1863
1343,1875
1344,1887
1345,1892
1346,1890
1347,1884
1348,1878
1349,1872
1350,1866
1351,1855
1352,1840
1353,1829
1354,1822
1355,1819
1356,1821
1357,1821
1358,1811
1359,1817
1360,1826
1361,1839
1362,1847
1363,1853
1364,1855
1365,1853
1366,1854
1367,1856
1368,1853
1369,1842
1370,1837
1371,1830
1372,1825
1373,1824
1374,1827
1375,1827
1376,1826
1377,1835
1378,1841
1379,1851
1380,1852
1381,1846
1382,
1383,1840
1384,1840
1385,1840
1386,1831
1387,1825
1388,1815
1389,1808
1390,1806
1391,1799
1392,1802
1393,1803
1394,1808
1395,1813
1396,1825
1397,1831
1398,1835
1399,1827
1400,1822
1401,1813
1402,1808
1403,1807
1404,1795
1405,1785
1406,1779
1407,1777
1408,1781
1409,1786
1410,1791
1411,1803
1412,1808
1413,1821
1414,1824
1415,1823
1416,1820
1417,1810
1418,1807
1419,1795
1420,1787
1421,1776
1422,1770
1423,1765
1424,1771
1425,1776
1426,1785
1427,1805
1428,1815
1429,1835
1430,1849
1431,1856
1432,1856
1433,1859
1434,1856
1435,1855
1436,1849
1437,1838
1438,1822
1439,1810
1440,1808
1441,1808
1442,1802
1443,1809
1444,1813
1445,1821
1446,1833
1447,1839
1448,1834
1449,1829
1450,1821
1451,1813
1452,1808
1453,1803
1454,1795
1455,1779
1456,1776
1457,1777
1458,1786
1459,1795
1460,1807
1461,1817
1462,1824
1463,1842
1464,1843
1465,1842
1466,1840
1467,1833
1468,1824
1469,1814
1470,1805
1471,1786
1472,1775
1473,1767
1474,1773
1475,1772
1476,1775
1477,1779
1478,1789
1479,1805
1480,1819
1481,1826
1482,1826
1483,1826
1484,1827
1485,1830
1486,1825
1487,1814
1488,1806
1489,1795
1490,1793
1491,1792
1492,1792
1493,1798
1494,1805
1495,1840
1496,1837
1497,1837
1498,1829
1499,1823
1500,1808
1501,1799
1502,1791
1503,1791
1504,1792
1505,1798
1506,1804
1507,1809
1508,1818
1509,1835
1510,1840
1511,1842
1512,1840
1513,1839
1514,1835
1515,1824
1516,1812
1517,1803
1518,1793
1519,1796
1520,1797
1521,1807
1522,1811
1523,1823
1524,1837
1525,1845
1526,1856
1527,1863
1528,1861
1529,1857
1530,1855
1531,1847
1532,1841
1533,1837
1534,1823
1535,1823
1536,1827
1537,1835
1538,1846
1539,1856
1540,1869
1541,1884
1542,1904
1543,1915
1544,1924
1545,1924
1546,1925
1547,1922
1548,1920
1549,1918
1550,1911
1551,1905
1552,1909
1553,1919
1554,1931
1555,1936
1556,1943
1557,1956
1558,1967
1559,1981
1560,1985
1561,1984
1562,1983
1563,1968
1564,1947
1565,1930
1566,1907
1567,1903
1568,1892
1569,1883
1570,1879
1571,1883
1572,1893
1573,1901
1574,1906
1575,1905
1576,1903
1577,1899
1578,
1579,1893
1580,1886
1581,1872
1582,1872
1583,1869
1584,1866
1585,1866
1586,1861
1587,1861
1588,1858
1589,1857
1590,1867
1591,1862
1592,1858
1593,1844
1594,1834
1595,1819
1596,1808
1597,1792
1598,1775
1599,1759
1600,1755
1601,1755
1602,1761
1603,1765
1604,1773
1605,1785
1606,1801
1607,1813
1608,1826
1609,1830
1610,1831
1611,1827
1612,1823
1613,1812
1614,1799
1615,1792
1616,1781
1617,1781
1618,1783
1619,1795
1620,1799
1621,1811
1622,1829
1623,1847
1624,1861
1625,1865
1626,1863
1627,1859
1628,1853
1629,1842
1630,1831
1631,1819
1632,1806
1633,1798
1634,1796
1635,1794
1636,
1637,1797
1638,1802
1639,1805
1640,1814
1641,1833
1642,1840
1643,1840
1644,1837
1645,1836
1646,1833
1647,1829
1648,1825
1649,1817
1650,1808
1651,1808
1652,1808
1653,1810
1654,1820
1655,1827
1656,1840
1657,1853
1658,1866
1659,1869
1660,1869
1661,1865
1662,1863
1663,1858
1664,1856
1665,1851
1666,1842
1667,1840
1668,1841
1669,1845
1670,1852
1671,1858
1672,1867
1673,1878
1674,1893
1675,1903
1676,1902
1677,1899
1678,1893
1679,1885
1680,1883
1681,1873
1682,1856
1683,1851
1684,1840
1685,1846
1686,1853
1687,1859
1688,1872
1689,1881
1690,1881
1691,1877
1692,1873
1693,1873
1694,1871
1695,1870
1696,1867
1697,
1698,1869
1699,1878
1700,1904
1701,1927
1702,1961
1703,1999
1704,2047
1705,2103
1706,2160
1707,2221
1708,2277
1709,2343
1710,2415
1711,2486
1712,2559
1713,2640
1714,2709
1715,2786
1716,2873
1717,2967
1718,3059
1719,3163
1720,3261
1721,3361
1722,3463
1723,3568
1724,3664
1725,3738
1726,3795
1727,3810
1728,3776
1729,3696
1730,3567
1731,3415
1732,3238
1733,3037
1734,2835
1735,2624
1736,2413
1737,2207
1738,2015
1739,1840
1740,1679
1741,1531
1742,1407
1743,1309
1744,1234
1745,1186
1746,1165
1747,1164
1748,1186
1749,1232
1750,1290
1751,1359
1752,1429
1753,1502
1754,1584
1755,1659
1756,
1757,1727
1758,1781
1759,1821
1760,1850
1761,1872
1762,1874
1763,1873
1764,1870
1765,1857
1766,1851
1767,1849
1768,1854
1769,1862
1770,1872
1771,1881
1772,1893
1773,1914
1774,1931
1775,1937
1776,1942
1777,1945
1778,1949
1779,1947
1780,1938
1781,1927
1782,1918
1783,1906
1784,1904
1785,1907
1786,1905
1787,1911
1788,1918
1789,1923
1790,1933
1791,1935
1792,1935
1793,1935
1794,1931
1795,1929
1796,1919
1797,1911
1798,1894
1799,1883
1800,1881
1801,1882
1802,1888
1803,1894
1804,1900
1805,1926
1806,1931
1807,1932
1808,1933
1809,1930
1810,1919
1811,1914
1812,1899
1813,1887
1814,1878
1815,1874
1816,1875
1817,1875
1818,1881
1819,1883
1820,1892
1821,
1822,1903
1823,1911
1824,1918
1825,1918
1826,1922
1827,1923
1828,1911
1829,1914
1830,1902
1831,1900
1832,1897
1833,1901
1834,1904
1835,1915
1836,1920
1837,1927
1838,1937
1839,1954
1840,1965
1841,1965
1842,1963
1843,1963
1844,1965
1845,1957
1846,1954
1847,1949
1848,1943
1849,1943
1850,1949
1851,1955
1852,1960
1853,1968
1854,1975
1855,1987
1856,1998
1857,2000
1858,1997
1859,1994
1860,1986
1861,1981
1862,1971
1863,1962
1864,1952
1865,1943
1866,1949
1867,1955
1868,1962
1869,1968
1870,1979
1871,1987
1872,2001
1873,2005
1874,2010
1875,2007
1876,2000
1877,1998
1878,1991
1879,1987
1880,1975
1881,1975
1882,1975
1883,1979
1884,1991
1885,2001
1886,2011
1887,2028
1888,2039
1889,2065
1890,2074
1891,2078
1892,2076
1893,2068
1894,2064
1895,2054
1896,2032
1897,2019
1898,2007
1899,2001
1900,2000
1901,2003
1902,2011
1903,2024
1904,2037
1905,2055
1906,2072
1907,2079
1908,2081
1909,2086
1910,2087
1911,2085
1912,2081
1913,2077
1914,2069
1915,2065
1916,2064
1917,2064
1918,2064
1919,2064
1920,2067
1921,2075
1922,2091
1923,2096
1924,2105
1925,2109
1926,2105
1927,2100
1928,2096
1929,2098
1930,2086
1931,2080
1932,2080
1933,2071
1934,2081
1935,2082
1936,2079
1937,2085
1938,2089
1939,2103
1940,2109
1941,2112
1942,2107
1943,2106
1944,2098
1945,2094
1946,2087
1947,2077
1948,2063
1949,2064
1950,2063
1951,2064
1952,2064
1953,2067
1954,2074
1955,2083
1956,2085
1957,2085
1958,2082
1959,2079
1960,2069
1961,2064
1962,2046
1963,2035
1964,2022
1965,2015
1966,2014
1967,2017
1968,2022
1969,2032
1970,2036
1971,2053
1972,2069
1973,2079
1974,2080
1975,2070
1976,2065
1977,2047
1978,2035
1979,2025
1980,2004
1981,1984
1982,1968
1983,1957
1984,1955
1985,1947
1986,1943
1987,1943
1988,1943
1989,1949
1990,1948
1991,1939
1992,1931
1993,1919
1994,1915
1995,1904
1996,1890
1997,1873
1998,1856
1999,1851
2000,1845
2001,1841
2002,1842
2003,1839
2004,1841
2005,1843
2006,1842
2007,
2008,1841
2009,1831
2010,1827
2011,1813
2012,1807
2013,1792
2014,1776
2015,1759
2016,1739
2017,1733
2018,1739
2019,1741
2020,1747
2021,1760
2022,1771
2023,1783
2024,1798
2025,1799
2026,1792
2027,1787
2028,1776
2029,1760
2030,1745
2031,1728
2032,1712
2033,1702
2034,1702
2035,1709
2036,1712
2037,1723
2038,1734
2039,1753
2040,1766
2041,1781
2042,1783
2043,1783
2044,1781
2045,1775
2046,1761
2047,1753
2048,1741
2049,1723
2050,1712
2051,1703
2052,1707
2053,1712
2054,1718
2055,1760
2056,1763
2057,1763
2058,1763
2059,1761
2060,1754
2061,1746
2062,1733
2063,1725
2064,1719
2065,1726
2066,
2067,1730
2068,1744
2069,1754
2070,1763
2071,1781
2072,1792
2073,1797
2074,1792
2075,1793
2076,1789
2077,1782
2078,1777
2079,1766
2080,1755
2081,1746
2082,1745
2083,1748
2084,1751
2085,1760
2086,1766
2087,1776
2088,1787
2089,1793
2090,1792
2091,1782
2092,1780
2093,1777
2094,1776
2095,1772
2096,1762
2097,1753
2098,1753
2099,1759
2100,1765
2101,1773
2102,1782
2103,1798
2104,1809
2105,1823
2106,1827
2107,1827
2108,1827
2109,1822
2110,1815
2111,1811
2112,1808
2113,1801
2114,1798
2115,1810
2116,1821
2117,1831
2118,1845
2119,1858
2120,1872
2121,1872
2122,1865
2123,1855
2124,1841
2125,1831
2126,1820
2127,1807
2128,1794
2129,1783
2130,1782
2131,
2132,1786
2133,1795
2134,1808
2135,1820
2136,1834
2137,1854
2138,1858
2139,1859
2140,1859
2141,1859
2142,1857
2143,1855
2144,1845
2145,1837
2146,1823
2147,1819
2148,1818
2149,1822
2150,1823
2151,1830
2152,1840
2153,1847
2154,1856
2155,1858
2156,1857
2157,1850
2158,1841
2159,1837
2160,1823
2161,1813
2162,1798
2163,1792
2164,1787
2165,1792
2166,1801
2167,1807
2168,1815
2169,1821
2170,1825
2171,1840
2172,1841
2173,1844
2174,1840
2175,1842
2176,1838
2177,1829
2178,1823
2179,1810
2180,1807
2181,1806
2182,1807
2183,1808
2184,1814
2185,1821
2186,1835
2187,1844
2188,1845
2189,1847
2190,1847
2191,1847
2192,1841
2193,1837
2194,1823
2195,1810
2196,1808
2197,1808
2198,1808
2199,1817
2200,1819
2201,1823
2202,1827
2203,1831
2204,1828
2205,1822
2206,1813
2207,1810
2208,1797
2209,1798
2210,1789
2211,1779
2212,1775
2213,1774
2214,1777
2215,1782
2216,1785
2217,1791
2218,1801
2219,1816
2220,1826
2221,1820
2222,1818
2223,1813
2224,1811
2225,1808
2226,1805
2227,1799
2228,1791
2229,1791
2230,1801
2231,1805
2232,1810
2233,1819
2234,1837
2235,1841
2236,1855
2237,1865
2238,1862
2239,1856
2240,1851
2241,1840
2242,1831
2243,1817
2244,1808
2245,1793
2246,1790
2247,
2248,1791
2249,1797
2250,1802
2251,1808
2252,1817
2253,1827
2254,1841
2255,1847
2256,1849
2257,1842
2258,1839
2259,1829
2260,1823
2261,1814
2262,1804
2263,1797
2264,1797
2265,1805
2266,1808
2267,1819
2268,1826
2269,1836
2270,1849
2271,1856
2272,1857
2273,1854
2274,1847
2275,1839
2276,1828
2277,1813
2278,1799
2279,1782
2280,1774
2281,1770
2282,1770
2283,1773
2284,1778
2285,1791
2286,1805
2287,1814
2288,1824
2289,1823
2290,1825
2291,1827
2292,1824
2293,1817
2294,1812
2295,1806
2296,1794
2297,1820
2298,1831
2299,1842
2300,1845
2301,
2302,1847
2303,1841
2304,1839
2305,1830
2306,1823
2307,1819
2308,1807
2309,1795
2310,1796
2311,1797
2312,1802
2313,1808
2314,1813
2315,1822
2316,1833
2317,1838
2318,1840
2319,1838
2320,1834
2321,1830
2322,1826
2323,1817
2324,1808
2325,1795
2326,1783
2327,1787
2328,1793
2329,1803
2330,1811
2331,1826
2332,1843
2333,1854
2334,1863
2335,1867
2336,1866
2337,1860
2338,1857
2339,1847
2340,1838
2341,1821
2342,1808
2343,1794
2344,1787
2345,1793
2346,1792
2347,1796
2348,1796
2349,1802
2350,1815
2351,1827
2352,1827
2353,1831
2354,1836
2355,1840
2356,1829
2357,1819
2358,1807
2359,1808
2360,1808
2361,1808
2362,1811
2363,1815
2364,1823
2365,1834
2366,1846
2367,1852
2368,1853
2369,1864
2370,1853
2371,1857
2372,1855
2373,1853
2374,1845
2375,1844
2376,1847
2377,1857
2378,1862
2379,1872
2380,1877
2381,1887
2382,1903
2383,1909
2384,1920
2385,1924
2386,1933
2387,1938
2388,1939
2389,1951
2390,1951
2391,1951
2392,1959
2393,1969
2394,1979
2395,1987
2396,1997
2397,2000
2398,2010
2399,2012
2400,2007
2401,1997
2402,1983
2403,1971
2404,1964
2405,1953
2406,1939
2407,1934
2408,1925
2409,1928
2410,1934
2411,1943
2412,1954
2413,1966
2414,1983
2415,1995
2416,2010
2417,2007
2418,2010
2419,2007
2420,2000
2421,1994
2422,1984
2423,1959
2424,1936
2425,1919
2426,1904
2427,1904
2428,1895
2429,1897
2430,1902
2431,1910
2432,1920
2433,1922
2434,1922
2435,1922
2436,1917
2437,1910
2438,1903
2439,1894
2440,1879
2441,1869
2442,1863
2443,1853
2444,1849
2445,1845
2446,1844
2447,1851
2448,1845
2449,
2450,1853
2451,1849
2452,1847
2453,1840
2454,1830
2455,1825
2456,1821
2457,1811
2458,1809
2459,1799
2460,1797
2461,1806
2462,1806
2463,1818
2464,1817
2465,1826
2466,1840
2467,1849
2468,1853
2469,1856
2470,1854
2471,1850
2472,1843
2473,1831
2474,1819
2475,1803
2476,1794
2477,1792
2478,1799
2479,1802
2480,1809
2481,1819
2482,1834
2483,1845
2484,1851
2485,1859
2486,1859
2487,1857
2488,1858
2489,1849
2490,1846
2491,1835
2492,1823
2493,1819
2494,1808
2495,1815
2496,1820
2497,1829
2498,1879
2499,1876
2500,1872
2501,1870
2502,1859
2503,1856
2504,1851
2505,1846
2506,
2507,1843
2508,1845
2509,1851
2510,1855
2511,1862
2512,1867
2513,1877
2514,1886
2515,1887
2516,1883
2517,1880
2518,1879
2519,1872
2520,1872
2521,1865
2522,1855
2523,1850
2524,1848
2525,1851
2526,1851
2527,1854
2528,1857
2529,1861
2530,1881
2531,1887
2532,1895
2533,1901
2534,1905
2535,1907
2536,1904
2537,1897
2538,1886
2539,1874
2540,1872
2541,1872
2542,1870
2543,1872
2544,1875
2545,1883
2546,1895
2547,1905
2548,1918
2549,1920
2550,1927
2551,1930
2552,1929
2553,1926
2554,1926
2555,1930
2556,1936
2557,1951
2558,1979
2559,2015
2560,2064
2561,2117
2562,2174
2563,2245
2564,2320
2565,2389
2566,2466
2567,2546
2568,2640
2569,2734
2570,2823
2571,2917
2572,3015
2573,3129
2574,3238
2575,3355
2576,3478
2577,3610
2578,3741
2579,3878
2580,4026
2581,4095
2582,4095
2583,4095
2584,4095
2585,4070
2586,3917
2587,3719
2588,3487
2589,3264
2590,3024
2591,1923
2592,1936
2593,1939
2594,1938
2595,1940
2596,1936
2597,1936
2598,1933
2599,1924
2600,1915
2601,1904
2602,1895
2603,1897
2604,1901
2605,1903
2606,1913
2607,1923
2608,1931
2609,1947
2610,1952
2611,1950
2612,1943
2613,1936
2614,1930
2615,1919
2616,1904
2617,1892
2618,1879
2619,1878
2620,1879
2621,1892
2622,1904
2623,1915
2624,1925
2625,1941
2626,1957
2627,1967
2628,1967
2629,1968
2630,1967
2631,1961
2632,1953
2633,1937
2634,1921
2635,1917
2636,1909
2637,1916
2638,1917
2639,1923
2640,1922
2641,1934
2642,1945
2643,1950
2644,1952
2645,1953
2646,1950
2647,1950
2648,1945
2649,1941
2650,1936
2651,1929
2652,1929
2653,1935
2654,1938
2655,1947
2656,1957
2657,1968
2658,1982
2659,1974
2660,1966
2661,1954
2662,1936
2663,1925
2664,1921
2665,1918
2666,1920
2667,1929
2668,1936
2669,1946
2670,1959
2671,1968
2672,1971
2673,
2674,1975
2675,1986
2676,1988
2677,1987
2678,1989
2679,1981
2680,1975
2681,1969
2682,1974
2683,1983
2684,1989
2685,1995
2686,2001
2687,2011
2688,2025
2689,2032
2690,2032
2691,2027
2692,2023
2693,2021
2694,2015
2695,2007
2696,1997
2697,1989
2698,1983
2699,1984
2700,1985
2701,1990
2702,2000
2703,2013
2704,2021
2705,2041
2706,2047
2707,2059
2708,2059
2709,2054
2710,2046
2711,2045
2712,2035
2713,2030
2714,2030
2715,2029
2716,2032
2717,2042
2718,2058
2719,2064
2720,2084
2721,2096
2722,2109
2723,2114
2724,2113
2725,2117
2726,2114
2727,2112
2728,2107
2729,2099
2730,2094
2731,2082
2732,2083
2733,2089
2734,2096
2735,2097
2736,2106
2737,2113
2738,2128
2739,2144
2740,2142
2741,2147
2742,2145
2743,2140
2744,2131
2745,2123
2746,2109
2747,2089
2748,2080
2749,2078
2750,2082
2751,2087
2752,2092
2753,2101
2754,2121
2755,2128
2756,2138
2757,2138
2758,2135
2759,2130
2760,2126
2761,2116
2762,2105
2763,2085
2764,2069
2765,2064
2766,2064
2767,2067
2768,2074
2769,2085
2770,2086
2771,2107
2772,2119
2773,2119
2774,2117
2775,2117
2776,2112
2777,2109
2778,2098
2779,2090
2780,2071
2781,2055
2782,2043
2783,2043
2784,2045
2785,2047
2786,2062
2787,2063
2788,2071
2789,2074
2790,2065
2791,2059
2792,2039
2793,2031
2794,2014
2795,2000
2796,1984
2797,1965
2798,1952
2799,1937
2800,1930
2801,1927
2802,1925
2803,1929
2804,1931
2805,1941
2806,1936
2807,1931
2808,1921
2809,1910
2810,1895
2811,1889
2812,1873
2813,1857
2814,1841
2815,1829
2816,1727
2817,1712
2818,1695
2819,1689
2820,1690
2821,1697
2822,1702
2823,1715
2824,1729
2825,1731
2826,1747
2827,1744
2828,1744
2829,1744
2830,1741
2831,1735
2832,1729
2833,1715
2834,1708
2835,1698
2836,1696
2837,1696
2838,1699
2839,1702
2840,1712
2841,1723
2842,1735
2843,1740
2844,1741
2845,1733
2846,1733
2847,1726
2848,1722
2849,1713
2850,1708
2851,1699
2852,1698
2853,1701
2854,1709
2855,1715
2856,1729
2857,1744
2858,1760
2859,1775
2860,1776
2861,1776
2862,1776
2863,1775
2864,1767
2865,1754
2866,1744
2867,1735
2868,1728
2869,1728
2870,1730
2871,1733
2872,1738
2873,1744
2874,1755
2875,1774
2876,1775
2877,1773
2878,1770
2879,1761
2880,1755
2881,1755
2882,1755
2883,1762
2884,1771
2885,1776
2886,1786
2887,1805
2888,1811
2889,1813
2890,1814
2891,1808
2892,1812
2893,1806
2894,1795
2895,1789
2896,1776
2897,1770
2898,1771
2899,1775
2900,1779
2901,1792
2902,1802
2903,1808
2904,1823
2905,1834
2906,1835
2907,1834
2908,1826
2909,1821
2910,1811
2911,1803
2912,1792
2913,1777
2914,1774
2915,1767
2916,1776
2917,1776
2918,1779
2919,1794
2920,1808
2921,1817
2922,1827
2923,1834
2924,1833
2925,1830
2926,1820
2927,1822
2928,1811
2929,1797
2930,1786
2931,1776
2932,1777
2933,1780
2934,1787
2935,1791
2936,1793
2937,1833
2938,1841
2939,1840
2940,1836
2941,1824
2942,1810
2943,1803
2944,1798
2945,1796
2946,1795
2947,1798
2948,1799
2949,1803
2950,1811
2951,1819
2952,1811
2953,1819
2954,1820
2955,1815
2956,1812
2957,1804
2958,1793
2959,1785
2960,1783
2961,1784
2962,1793
2963,1795
2964,1805
2965,1807
2966,1818
2967,1825
2968,1829
2969,1824
2970,1819
2971,1814
2972,1811
2973,1805
2974,1791
2975,1780
2976,1771
2977,1773
2978,1776
2979,1779
2980,1789
2981,1795
2982,1792
2983,1809
2984,1813
2985,1820
2986,1817
2987,1808
2988,1809
2989,1807
2990,1797
2991,1783
2992,1765
2993,1764
2994,1759
2995,1760
2996,1766
2997,1766
2998,1776
2999,1787
3000,1799
3001,1808
3002,1810
3003,1814
3004,1811
3005,1810
3006,1807
3007,1793
3008,1787
3009,
3010,1775
3011,1769
3012,1762
3013,1763
3014,1762
3015,1765
3016,1771
3017,1777
3018,1787
3019,1793
3020,1791
3021,1790
3022,1782
3023,1779
3024,1776
3025,1771
3026,1758
3027,1747
3028,1744
3029,1744
3030,1756
3031,1759
3032,1765
3033,1770
3034,1780
3035,1791
3036,1793
3037,1792
3038,1792
3039,1791
3040,1783
3041,1781
3042,1773
3043,1749
3044,1748
3045,1744
3046,1745
3047,1749
3048,1751
3049,1764
3050,1777
3051,1793
3052,1806
3053,1808
3054,1811
3055,1810
3056,1808
3057,1805
3058,1790
3059,1791
3060,1782
3061,1777
3062,1783
3063,1791
3064,1804
3065,1809
3066,1818
3067,1824
3068,1829
3069,1831
3070,
3071,1824
3072,1817
3073,1808
3074,1798
3075,1787
3076,1779
3077,1763
3078,1751
3079,1751
3080,1758
3081,1768
3082,1773
3083,1777
3084,1785
3085,1797
3086,1811
3087,1814
3088,1814
3089,1815
3090,1813
3091,1815
3092,1807
3093,1797
3094,1787
3095,1778
3096,1780
3097,1791
3098,1797
3099,1795
3100,1807
3101,1809
3102,1823
3103,1831
3104,1829
3105,1828
3106,1825
3107,1818
3108,1815
3109,1799
3110,1795
3111,1782
3112,1776
3113,1773
3114,1769
3115,1771
3116,1772
3117,1776
3118,1785
3119,1799
3120,1810
3121,1814
3122,1821
3123,1817
3124,1815
3125,1811
3126,1808
3127,1801
3128,1792
3129,1786
3130,1789
3131,1791
3132,
3133,1796
3134,1803
3135,1811
3136,1821
3137,1835
3138,1840
3139,1842
3140,1840
3141,1843
3142,1845
3143,1839
3144,1830
3145,1812
3146,1802
3147,1799
3148,1797
3149,1794
3150,1799
3151,1804
3152,1808
3153,1819
3154,1829
3155,1831
3156,1833
3157,1826
3158,1829
3159,1825
3160,1818
3161,1809
3162,1798
3163,1794
3164,1795
3165,1798
3166,1808
3167,1814
3168,1827
3169,1845
3170,1856
3171,1869
3172,1873
3173,1877
3174,1883
3175,1877
3176,1879
3177,1871
3178,1856
3179,1841
3180,1833
3181,1830
3182,1835
3183,1850
3184,1865
3185,1887
3186,1911
3187,1927
3188,1941
3189,1954
3190,1958
3191,1965
3192,1963
3193,1952
3194,1937
3195,1924
3196,1914
3197,1911
3198,1905
3199,1913
3200,1918
3201,1931
3202,1946
3203,1963
3204,1968
3205,1975
3206,1975
3207,1975
3208,1977
3209,1973
3210,1968
3211,1965
3212,1955
3213,1952
3214,1951
3215,1953
3216,1951
3217,1949
3218,1953
3219,1955
3220,1957
3221,1942
3222,1933
3223,1918
3224,1898
3225,1874
3226,1858
3227,1839
3228,1821
3229,1815
3230,1815
3231,1824
3232,1834
3233,1843
3234,1857
3235,1872
3236,1878
3237,1882
3238,1881
3239,1877
3240,1787
3241,1776
3242,1776
3243,1772
3244,1775
3245,1779
3246,1789
3247,1803
3248,1811
3249,1819
3250,1821
3251,1821
3252,1815
3253,1810
3254,1799
3255,1788
3256,1777
3257,1767
3258,1766
3259,1769
3260,1771
3261,1777
3262,1778
3263,1792
3264,1807
3265,1815
3266,1813
3267,1813
3268,1811
3269,1808
3270,1797
3271,1792
3272,1774
3273,1760
3274,1751
3275,1755
3276,1758
3277,1763
3278,1768
3279,1777
3280,1792
3281,1808
3282,1817
3283,1818
3284,1821
3285,1821
3286,1813
3287,1813
3288,1809
3289,1796
3290,1792
3291,1791
3292,1793
3293,1794
3294,1804
3295,1838
3296,1840
3297,1839
3298,1838
3299,1832
3300,1826
3301,
3302,1821
3303,1807
3304,1795
3305,1792
3306,1791
3307,1796
3308,1800
3309,1811
3310,1818
3311,1825
3312,1841
3313,1850
3314,1858
3315,1855
3316,1856
3317,1853
3318,1853
3319,1840
3320,1829
3321,1820
3322,1810
3323,1809
3324,1814
3325,1815
3326,1823
3327,1828
3328,1840
3329,1855
3330,1863
3331,1867
3332,1857
3333,1852
3334,1846
3335,1839
3336,1826
3337,1815
3338,1808
3339,1813
3340,1817
3341,1834
3342,1842
3343,1859
3344,1883
3345,1913
3346,1940
3347,1967
3348,1984
3349,2001
3350,2019
3351,2038
3352,2070
3353,2101
3354,2139
3355,2192
3356,2261
3357,2338
3358,2423
3359,2512
3360,2615
3361,2718
3362,2826
3363,2929
3364,3024
3365,
3366,3130
3367,3229
3368,3329
3369,3425
3370,3502
3371,3600
3372,3659
3373,3735
3374,3795
3375,3813
3376,3815
3377,3794
3378,3696
3379,3573
3380,3434
3381,3249
3382,3045
3383,2828
3384,2607
3385,2379
3386,2161
3387,1958
3388,1763
3389,1597
3390,1454
3391,1334
3392,1248
3393,1191
3394,1167
3395,1168
3396,1199
3397,1244
3398,1297
3399,1360
3400,1429
3401,1505
3402,1580
3403,1637
3404,1683
3405,1721
3406,1753
3407,1782
3408,1808
3409,1829
3410,1845
3411,1865
3412,1875
3413,1891
3414,1904
3415,1904
3416,1903
3417,1903
3418,1904
3419,1899
3420,1890
3421,1885
3422,1872
3423,1872
3424,1870
3425,1869
3426,1871
3427,
3428,1873
3429,1883
3430,1893
3431,1904
3432,1911
3433,1907
3434,1910
3435,1904
3436,1897
3437,1889
3438,1875
3439,1866
3440,1857
3441,1855
3442,1849
3443,1853
3444,1856
3445,1869
3446,1882
3447,1901
3448,1914
3449,1921
3450,1925
3451,1929
3452,1922
3453,1916
3454,1907
3455,1895
3456,1884
3457,1874
3458,1873
3459,1875
3460,1884
3461,1890
3462,1901
3463,1909
3464,1927
3465,1936
3466,1939
3467,1937
3468,1936
3469,1935
3470,1928
3471,1921
3472,1909
3473,1898
3474,1889
3475,1887
3476,1891
3477,1894
3478,1902
3479,1907
3480,1919
3481,1927
3482,1931
3483,1935
3484,1935
3485,1930
3486,1928
3487,1919
3488,1913
3489,1903
3490,1887
3491,1888
3492,1890
3493,1899
3494,1904
3495,1919
3496,1931
3497,1950
3498,1971
3499,1983
3500,1986
3501,1987
3502,1986
3503,1983
3504,1973
3505,1965
3506,1947
3507,1939
3508,1936
3509,1935
3510,1936
3511,1943
3512,1952
3513,1965
3514,1977
3515,1985
3516,1988
3517,1994
3518,1995
3519,1995
3520,1993
3521,1987
3522,1982
3523,1980
3524,1979
3525,1979
3526,1983
3527,1985
3528,1988
3529,1998
3530,2000
3531,2015
3532,2019
3533,2020
3534,2019
3535,2015
3536,2019
3537,2018
3538,2002
3539,2002
3540,2010
3541,2018
3542,2025
3543,2034
3544,2045
3545,
3546,2057
3547,2077
3548,2081
3549,2080
3550,2077
3551,2077
3552,2066
3553,2064
3554,2047
3555,2034
3556,2032
3557,2032
3558,2035
3559,2044
3560,2059
3561,2069
3562,2082
3563,2096
3564,2103
3565,2103
3566,2099
3567,2096
3568,2093
3569,2087
3570,2079
3571,2070
3572,2060
3573,2055
3574,2057
3575,2061
3576,2062
3577,2064
3578,2075
3579,2081
3580,2093
3581,2098
3582,2102
3583,2107
3584,2112
3585,2117
3586,2114
3587,2113
3588,2106
3589,2096
3590,2093
3591,2093
3592,2096
3593,2097
3594,2097
3595,2107
3596,2119
3597,2128
3598,2128
3599,2119
3600,2112
3601,2104
3602,2095
3603,2082
3604,2066
3605,2047
3606,2039
3607,2037
3608,2041
3609,2047
3610,2059
3611,2064
3612,2074
3613,2091
3614,2102
3615,2100
3616,2102
3617,2096
3618,2087
3619,2074
3620,
3621,2063
3622,2039
3623,2026
3624,2013
3625,2009
3626,2003
3627,2000
3628,2000
3629,2000
3630,2000
3631,2005
3632,2000
3633,1984
3634,1968
3635,1954
3636,1942
3637,1923
3638,1907
3639,1891
3640,1872
3641,1872
3642,1869
3643,1872
3644,1875
3645,1879
3646,1890
3647,1895
3648,1904
3649,1903
3650,1889
3651,1885
3652,1870
3653,1854
3654,1838
3655,1811
3656,1790
3657,1773
3658,1757
3659,1754
3660,1745
3661,1744
3662,1743
3663,1745
3664,1754
3665,1761
3666,1762
3667,1759
3668,1761
3669,1755
3670,1750
3671,1742
3672,1731
3673,
3674,1718
3675,1712
3676,1712
3677,1712
3678,1718
3679,1722
3680,1728
3681,1739
3682,1744
3683,1744
3684,1748
3685,1744
3686,1741
3687,1729
3688,1718
3689,1709
3690,1691
3691,1682
3692,1680
3693,1681
3694,1686
3695,1695
3696,1707
3697,1718
3698,1733
3699,1745
3700,1751
3701,1749
3702,1751
3703,1745
3704,1739
3705,1732
3706,1723
3707,1711
3708,1699
3709,1699
3710,1701
3711,1700
3712,1706
3713,1712
3714,1715
3715,1729
3716,1737
3717,1728
3718,1727
3719,1722
3720,1715
3721,1712
3722,1708
3723,1707
3724,1691
3725,1690
3726,1693
3727,1703
3728,1705
3729,1715
3730,1730
3731,1743
3732,1759
3733,1763
3734,1765
3735,1758
3736,1750
3737,1742
3738,1730
3739,1715
3740,1707
3741,1696
3742,
3743,1695
3744,1701
3745,1707
3746,1715
3747,1728
3748,1744
3749,1760
3750,1776
3751,1780
3752,1783
3753,1790
3754,1795
3755,
3756,
3757,1797
3758,1793
3759,1789
3760,1776
3761,1773
3762,1766
3763,1767
3764,1770
3765,1775
3766,1777
3767,1780
3768,1792
3769,1793
3770,1793
3771,1794
3772,1796
3773,1795
3774,1793
3775,1791
3776,1785
3777,1776
3778,1776
3779,1771
3780,1776
3781,1779
3782,1787
3783,1792
3784,1804
3785,1811
3786,1818
3787,1810
3788,1808
3789,1799
3790,1795
3791,1790
3792,1785
3793,1775
3794,1769
3795,1766
3796,
3797,
3798,1775
3799,1786
3800,1801
3801,1813
3802,1830
3803,1843
3804,1860
3805,1862
3806,1858
3807,1855
3808,1851
3809,1840
3810,1829
3811,1819
3812,1807
3813,1799
3814,1795
3815,1791
3816,1788
3817,1781
3818,1783
3819,1785
3820,1792
3821,1795
3822,1808
3823,1821
3824,1828
3825,1830
3826,1829
3827,1826
3828,1821
3829,1811
3830,1808
3831,1798
3832,1787
3833,1778
3834,1773
3835,1771
3836,1767
3837,1774
3838,1777
3839,1790
3840,1800
3841,1808
3842,1805
3843,1805
3844,1805
3845,1801
3846,1795
3847,1782
3848,1770
3849,1757
3850,1749
3851,1754
3852,1756
3853,1762
3854,1769
3855,1781
3856,1799
3857,1809
3858,1814
3859,1814
3860,1812
3861,1814
3862,1808
3863,1814
3864,1813
3865,1808
3866,1808
3867,1802
3868,1794
3869,1792
3870,1776
3871,1772
3872,1760
3873,1761
3874,
3875,1767
3876,1775
3877,1777
3878,1790
3879,1808
3880,1822
3881,1825
3882,1824
3883,1818
3884,1817
3885,1813
3886,1808
3887,1801
3888,1791
3889,1785
3890,1784
3891,1786
3892,1791
3893,1795
3894,1802
3895,1809
3896,1821
3897,1834
3898,1831
3899,1829
3900,1824
3901,1825
3902,1819
3903,1818
3904,1810
3905,
3906,
3907,1808
3908,1809
3909,1813
3910,1822
3911,1825
3912,1829
3913,1835
3914,1840
3915,1846
3916,1849
3917,1840
3918,1836
3919,1823
3920,1811
3921,1805
3922,1793
3923,1777
3924,1766
3925,1766
3926,1761
3927,1761
3928,1764
3929,1776
3930,1782
3931,1794
3932,1808
3933,1819
3934,1824
3935,1825
3936,1834
3937,1831
3938,1834
3939,
3940,1829
3941,1821
3942,1812
3943,1813
3944,1822
3945,1824
3946,1827
3947,1827
3948,1831
3949,1839
3950,1837
3951,1834
3952,1831
3953,1829
3954,1828
3955,1823
3956,1820
3957,1809
3958,1802
3959,1798
3960,1798
3961,1802
3962,1808
3963,1809
3964,1817
3965,1827
3966,1840
3967,1841
3968,1846
3969,1845
3970,1843
3971,1839
3972,1834
3973,1823
3974,1813
3975,1808
3976,1808
3977,1814
3978,1822
3979,1827
3980,1840
3981,1854
3982,1871
3983,1885
3984,1890
3985,1889
3986,1888
3987,1886
3988,1886
3989,1872
3990,1865
3991,
3992,1856
3993,1840
3994,1823
3995,1808
3996,1789
3997,1776
3998,1776
3999,1775
4000,1776
4001,1777
4002,1781
4003,1790
4004,1802
4005,1809
4006,1812
4007,1812
4008,1813
4009,1807
4010,1798
4011,1791
4012,1779
4013,1767
4014,1773
4015,1774
4016,1788
4017,1806
4018,1818
4019,1839
4020,1853
4021,1871
4022,1881
4023,1885
4024,1884
4025,1879
4026,1873
4027,1863
4028,1845
4029,1839
4030,1830
4031,1826
4032,1827
4033,1829
4034,1830
4035,1840
4036,1847
4037,1865
4038,1872
4039,1876
4040,1872
4041,1860
4042,1855
4043,1844
4044,1835
4045,1827
4046,1823
4047,1822
4048,
4049,1824
4050,1826
4051,1839
4052,1845
4053,1856
4054,1863
4055,1865
4056,1870
4057,1865
4058,1869
4059,1867
4060,1865
4061,1856
4062,1846
4063,1840
4064,1842
4065,1846
4066,1848
4067,1856
4068,1863
4069,1872
4070,1878
4071,1882
4072,1879
4073,1879
4074,1879
4075,1873
4076,1872
4077,1864
4078,1854
4079,1844
4080,1840
4081,1843
4082,1846
4083,1855
4084,1857
4085,1863
4086,1875
4087,1888
4088,1899
4089,1901
4090,1903
4091,1903
4092,1897
4093,1897
4094,1886
4095,1875
4096,1875
4097,1881
4098,1889
4099,1907
4100,1930
4101,1958
4102,1989
4103,2029
4104,2069
4105,2103
4106,2143
4107,2183
4108,2231
4109,2288
4110,2352
4111,2416
4112,2487
4113,2571
4114,2650
4115,2738
4116,2830
4117,
4118,2926
4119,3024
4120,3135
4121,3243
4122,3345
4123,3440
4124,3535
4125,3633
4126,3727
4127,3815
4128,3862
4129,3861
4130,3827
4131,3747
4132,3637
4133,3490
4134,3322
4135,3137
4136,2931
4137,2727
4138,2514
4139,2305
4140,2099
4141,1904
4142,1718
4143,1560
4144,1413
4145,1295
4146,1207
4147,1158
4148,1137
4149,1152
4150,1191
4151,1247
4152,1317
4153,1393
4154,1475
4155,1554
4156,1621
4157,1683
4158,1737
4159,1776
4160,1807
4161,1830
4162,1840
4163,1841
4164,1847
4165,1854
4166,1858
4167,1865
4168,1872
4169,1885
4170,
4171,
4172,1903
4173,1921
4174,1932
4175,1942
4176,1946
4177,1949
4178,1957
4179,1952
4180,1948
4181,1935
4182,1921
4183,1917
4184,1911
4185,1911
4186,1907
4187,1907
4188,1917
4189,1923
4190,1931
4191,1925
4192,1929
4193,1930
4194,1929
4195,1927
4196,1919
4197,1910
4198,1900
4199,1888
4200,1891
4201,1899
4202,1904
4203,1910
4204,1924
4205,1934
4206,1949
4207,1960
4208,1962
4209,1963
4210,1961
4211,1956
4212,1955
4213,1949
4214,1938
4215,1927
4216,1925
4217,1926
4218,1932
4219,1934
4220,1938
4221,1943
4222,1958
4223,1968
4224,1973
4225,1970
4226,1968
4227,1968
4228,1965
4229,1961
4230,1953
4231,1938
4232,1934
4233,1930
4234,1933
4235,1935
4236,1966
4237,1955
4238,1951
4239,1957
4240,1963
4241,1971
4242,1983
4243,1991
4244,2003
4245,2027
4246,2045
4247,2057
4248,2064
4249,2064
4250,2065
4251,2065
4252,2063
4253,2047
4254,2037
4255,2036
4256,2033
4257,2038
4258,2036
4259,2054
4260,2061
4261,2069
4262,2081
4263,2082
4264,2084
4265,2085
4266,2082
4267,2080
4268,2075
4269,2064
4270,2058
4271,2046
4272,2039
4273,2043
4274,2055
4275,2062
4276,2069
4277,2087
4278,2101
4279,2114
4280,2114
4281,2117
4282,2113
4283,2114
4284,2112
4285,2109
4286,2105
4287,2097
4288,2095
4289,2098
4290,2109
4291,2115
4292,2128
4293,2141
4294,2154
4295,2163
4296,2170
4297,2161
4298,
4299,2160
4300,2160
4301,2151
4302,2148
4303,2134
4304,2123
4305,2114
4306,2109
4307,2111
4308,2115
4309,2117
4310,2128
4311,2139
4312,2151
4313,2162
4314,2162
4315,2159
4316,2154
4317,2150
4318,2143
4319,2133
4320,2128
4321,2117
4322,2102
4323,2100
4324,2099
4325,2102
4326,2103
4327,2109
4328,2115
4329,2127
4330,2134
4331,2135
4332,2137
4333,2133
4334,2131
4335,2128
4336,2124
4337,2112
4338,2100
4339,2098
4340,2099
4341,2103
4342,2112
4343,2112
4344,2123
4345,2130
4346,2145
4347,2146
4348,
4349,2139
4350,2134
4351,2124
4352,2112
4353,2096
4354,2075
4355,2047
4356,2033
4357,2027
4358,2025
4359,2021
4360,2016
4361,2018
4362,2017
4363,2014
4364,2011
4365,2001
4366,1995
4367,1984
4368,1981
4369,1971
4370,1963
4371,1949
4372,1933
4373,1921
4374,1911
4375,1907
4376,1904
4377,1903
4378,1901
4379,1901
4380,1904
4381,1904
4382,1903
4383,1894
4384,1884
4385,1872
4386,1857
4387,1840
4388,1817
4389,1795
4390,1781
4391,1776
4392,1774
4393,1776
4394,1778
4395,1791
4396,1796
4397,1813
4398,1825
4399,1826
4400,1829
4401,1829
4402,1825
4403,1819
4404,1808
4405,1795
4406,1781
4407,1776
4408,1775
4409,1774
4410,1776
4411,1782
4412,1783
4413,1783
4414,1776
4415,1777
4416,1779
4417,1790
4418,1796
4419,1808
4420,1820
4421,1827
4422,1835
4423,1837
4424,
4425,1836
4426,1831
4427,1830
4428,1823
4429,1817
4430,1806
4431,1797
4432,1791
4433,1795
4434,1805
4435,1808
4436,1819
4437,1828
4438,1840
4439,1853
4440,1859
4441,1862
4442,1864
4443,1861
4444,1856
4445,1843
4446,1840
4447,1823
4448,1819
4449,1815
4450,1815
4451,1823
4452,1830
4453,1838
4454,1850
4455,1862
4456,1872
4457,1872
4458,1872
4459,1872
4460,1871
4461,1872
4462,1865
4463,1859
4464,1847
4465,1845
4466,1847
4467,1855
4468,1866
4469,1872
4470,1879
4471,1891
4472,1898
4473,1902
4474,1900
4475,1894
4476,1887
4477,1877
4478,1873
4479,1863
4480,1855
4481,1845
4482,1844
4483,1850
4484,1859
4485,1869
4486,1876
4487,1891
4488,1905
4489,1915
4490,1922
4491,1919
4492,1919
4493,
4494,1915
4495,1905
4496,1903
4497,1890
4498,1879
4499,1870
4500,1871
4501,1872
4502,1877
4503,1887
4504,1902
4505,1915
4506,1930
4507,1940
4508,1938
4509,1938
4510,1936
4511,1927
4512,1919
4513,1907
4514,1895
4515,1886
4516,1881
4517,1877
4518,1879
4519,
4520,
4521,1885
4522,1890
4523,1889
4524,1895
4525,1904
4526,1907
4527,1902
4528,1895
4529,1883
4530,1872
4531,1866
4532,1858
4533,1850
4534,1843
4535,1842
4536,1850
4537,1862
4538,1872
4539,1878
4540,1893
4541,1909
4542,1920
4543,1925
4544,1925
4545,1920
4546,1920
4547,1910
4548,1898
4549,1877
4550,1866
4551,1854
4552,1846
4553,1843
4554,1845
4555,1851
4556,1858
4557,1862
4558,1871
4559,1875
4560,1877
4561,1873
4562,1870
4563,1865
4564,1861
4565,1856
4566,1846
4567,1840
4568,1840
4569,1845
4570,1854
4571,1869
4572,1875
4573,1887
4574,1901
4575,1911
4576,1916
4577,1915
4578,1906
4579,1899
4580,1891
4581,1883
4582,1874
4583,1860
4584,1847
4585,1840
4586,1840
4587,1841
4588,1845
4589,1853
4590,1866
4591,1882
4592,1893
4593,1891
4594,1886
4595,1878
4596,1869
4597,1858
4598,1846
4599,1839
4600,
4601,1824
4602,1825
4603,1828
4604,1835
4605,1840
4606,1846
4607,1854
4608,1861
4609,1872
4610,1877
4611,1872
4612,1867
4613,1862
4614,1853
4615,1841
4616,1837
4617,1827
4618,1824
4619,1825
4620,1834
4621,1838
4622,1850
4623,1857
4624,1865
4625,1877
4626,1891
4627,1897
4628,1898
4629,1894
4630,1889
4631,1878
4632,1867
4633,1857
4634,1840
4635,1833
4636,1833
4637,1838
4638,1841
4639,1855
4640,1863
4641,1879
4642,1904
4643,1911
4644,1915
4645,1911
4646,1909
4647,1903
4648,1882
4649,1868
4650,1842
4651,1825
4652,1814
4653,1812
4654,1813
4655,1817
4656,1823
4657,1837
4658,
4659,1847
4660,1862
4661,1869
4662,1870
4663,1872
4664,1869
4665,1867
4666,1859
4667,1858
4668,1851
4669,1845
4670,1839
4671,1840
4672,1841
4673,1847
4674,1856
4675,1866
4676,1876
4677,1888
4678,1891
4679,1893
4680,1893
4681,1887
4682,1881
4683,1871
4684,1857
4685,1848
4686,1835
4687,1838
4688,1837
4689,1839
4690,1839
4691,1851
4692,1858
4693,1872
4694,1880
4695,1878
4696,1873
4697,1875
4698,1872
4699,1871
4700,1863
4701,1857
4702,1851
4703,1854
4704,1853
4705,
4706,
4707,1856
4708,1867
4709,1865
4710,1873
4711,1882
4712,1892
4713,1904
4714,1902
4715,1906
4716,1905
4717,1904
4718,1901
4719,1891
4720,1877
4721,1872
4722,1865
4723,1859
4724,1857
4725,1855
4726,1862
4727,1865
4728,1874
4729,1884
4730,1887
4731,1891
4732,1893
4733,1892
4734,1890
4735,1885
4736,1883
4737,1872
4738,1869
4739,1865
4740,1867
4741,1870
4742,1871
4743,1880
4744,1885
4745,1902
4746,1908
4747,1910
4748,1905
4749,1905
4750,1903
4751,1899
4752,1886
4753,1872
4754,1861
4755,1856
4756,1859
4757,1859
4758,1868
4759,1872
4760,1889
4761,1904
4762,1920
4763,1932
4764,1936
4765,1938
4766,1938
4767,1935
4768,1934
4769,1927
4770,1915
4771,1905
4772,1987
4773,1986
4774,1983
4775,1975
4776,1977
4777,1983
4778,1989
4779,2000
4780,2006
4781,2015
4782,2026
4783,2031
4784,2031
4785,2019
4786,2007
4787,1995
4788,
4789,1982
4790,1962
4791,1948
4792,1925
4793,1910
4794,1904
4795,1903
4796,1904
4797,1907
4798,1919
4799,1927
4800,1936
4801,1943
4802,1941
4803,1941
4804,1936
4805,1932
4806,1924
4807,1910
4808,1897
4809,1877
4810,1866
4811,1857
4812,1856
4813,1856
4814,1858
4815,1864
4816,1872
4817,1882
4818,1891
4819,1886
4820,1878
4821,1873
4822,1867
4823,1860
4824,1843
4825,1831
4826,1818
4827,1810
4828,1810
4829,1808
4830,1820
4831,1831
4832,1845
4833,1869
4834,1883
4835,1891
4836,1891
4837,1888
4838,1830
4839,1836
4840,1839
4841,1845
4842,1859
4843,1871
4844,1883
4845,1893
4846,1898
4847,1895
4848,1893
4849,1886
4850,1873
4851,1863
4852,1856
4853,1840
4854,1837
4855,1830
4856,1831
4857,
4858,
4859,
4860,
4861,1837
4862,1845
4863,1856
4864,1867
4865,1886
4866,1900
4867,1904
4868,1907
4869,1906
4870,1905
4871,1904
4872,1895
4873,1886
4874,1882
4875,1877
4876,1882
4877,1884
4878,1890
4879,1895
4880,1898
4881,1907
4882,1920
4883,1927
4884,1933
4885,1935
4886,1935
4887,1935
4888,1931
4889,1922
4890,1915
4891,1905
4892,1904
4893,1910
4894,1914
4895,1919
4896,1930
4897,1936
4898,1950
4899,1967
4900,1967
4901,1962
4902,1963
4903,1961
4904,1951
4905,1942
4906,1927
4907,1910
4908,1900
4909,1893
4910,1894
4911,1904
4912,1910
4913,1921
4914,1935
4915,4095
4916,4095
4917,4095
4918,4095
4919,1905
4920,1936
4921,1964
4922,1983
4923,2000
4924,2005
4925,2005
4926,
4927,
4928,2000
4929,1994
4930,1988
4931,1983
4932,1973
4933,1965
4934,1953
4935,1950
4936,1949
4937,1949
4938,1949
4939,1958
4940,1966
4941,1969
4942,1978
4943,1975
4944,1968
4945,1964
4946,1957
4947,1953
4948,1944
4949,1936
4950,1921
4951,1915
4952,1914
4953,1919
4954,1931
4955,1937
4956,1952
4957,1968
4958,1981
4959,1996
4960,2000
4961,1999
4962,1994
4963,1987
4964,1984
4965,1975
4966,1961
4967,1947
4968,1941
4969,1939
4970,1943
4971,1950
4972,1957
4973,1968
4974,1983
4975,1994
4976,1999
4977,1997
4978,1991
4979,1991
4980,1986
4981,1979
4982,1971
4983,1966
4984,1963
4985,1958
4986,1965
4987,1969
4988,1971
4989,1984
4990,1991
4991,2001
4992,2034
4993,2035
4994,2031
4995,2023
4996,2023
4997,2030
4998,2029
4999,2033
5000,
5001,2037
5002,2043
5003,2059
5004,2064
5005,2067
5006,2064
5007,2059
5008,2054
5009,2046
5010,2043
5011,2039
5012,2033
5013,2028
5014,
5015,2032
5016,2034
5017,2050
5018,2059
5019,2064
5020,2077
5021,2087
5022,2096
5023,2097
5024,2096
5025,2094
5026,2091
5027,
5028,
5029,2089
5030,2087
5031,2081
5032,2075
5033,2075
5034,2082
5035,2086
5036,2099
5037,2107
5038,2114
5039,2127
5040,2138
5041,2153
5042,2158
5043,2160
5044,2161
5045,2163
5046,2166
5047,2160
5048,2149
5049,2139
5050,2128
5051,2129
5052,2128
5053,2130
5054,2137
5055,2144
5056,2155
5057,2163
5058,2170
5059,2170
5060,2167
5061,2173
5062,2172
5063,2173
5064,2171
5065,2163
5066,2163
5067,2164
5068,2172
5069,2180
5070,2190
5071,2195
5072,2203
5073,2192
5074,2183
5075,2173
5076,2165
5077,2163
5078,2161
5079,2164
5080,2170
5081,2179
5082,2192
5083,2207
5084,2218
5085,2218
5086,2217
5087,2214
5088,2207
5089,2194
5090,2191
5091,2177
5092,2163
5093,1786
5094,1779
5095,1765
5096,1755
5097,1746
5098,1749
5099,1754
5100,1762
5101,1775
5102,1785
5103,1802
5104,1817
5105,1831
5106,1839
5107,
5108,1840
5109,1845
5110,1849
5111,1845
5112,1840
5113,1829
5114,1819
5115,1808
5116,1807
5117,1806
5118,1807
5119,1808
5120,1812
5121,1821
5122,1835
5123,1835
5124,1838
5125,1839
5126,1835
5127,1830
5128,1818
5129,1811
5130,1803
5131,1799
5132,1798
5133,1805
5134,1814
5135,1817
5136,1828
5137,1837
5138,1847
5139,1856
5140,1859
5141,1858
5142,1856
5143,1848
5144,1841
5145,1835
5146,1821
5147,1812
5148,1809
5149,1811
5150,1817
5151,1821
5152,1831
5153,1840
5154,1851
5155,1863
5156,1869
5157,1872
5158,1872
5159,1867
5160,1866
5161,1859
5162,1855
5163,1840
5164,1830
5165,1826
5166,1823
5167,1826
5168,1831
5169,1842
5170,
5171,1856
5172,1872
5173,1893
5174,1904
5175,1909
5176,1907
5177,1915
5178,1911
5179,1904
5180,1894
5181,1883
5182,1873
5183,1871
5184,1871
5185,1870
5186,1871
5187,1872
5188,1872
5189,1877
5190,1885
5191,1877
5192,1873
5193,1865
5194,1862
5195,1857
5196,1853
5197,1845
5198,1841
5199,1842
5200,1850
5201,1856
5202,1866
5203,1870
5204,1874
5205,1884
5206,1897
5207,1897
5208,1893
5209,1888
5210,1883
5211,1873
5212,1864
5213,1856
5214,1842
5215,1835
5216,1833
5217,1840
5218,1840
5219,1842
5220,1853
5221,1859
5222,
5223,
5224,1870
5225,1876
5226,1877
5227,1877
5228,1873
5229,1872
5230,1871
5231,1865
5232,1856
5233,1844
5234,1840
5235,1840
5236,1842
5237,1847
5238,1855
5239,1865
5240,1874
5241,1888
5242,1899
5243,1894
5244,1885
5245,1874
5246,1865
5247,1855
5248,1840
5249,1828
5250,1820
5251,1809
5252,1811
5253,1813
5254,1817
5255,1821
5256,1829
5257,1840
5258,1853
5259,1861
5260,1860
5261,1861
5262,1859
5263,1856
5264,1853
5265,1845
5266,1837
5267,1830
5268,1832
5269,1837
5270,1841
5271,1849
5272,1855
5273,1862
5274,1872
5275,1876
5276,1877
5277,1875
5278,1871
5279,1870
5280,1863
5281,1856
5282,1851
5283,1837
5284,1828
5285,1821
5286,1869
5287,1871
5288,1869
5289,1870
5290,1868
5291,1859
5292,1853
5293,1841
5294,1833
5295,1825
5296,1822
5297,1824
5298,1825
5299,1834
5300,
5301,
5302,1840
5303,1850
5304,1857
5305,1857
5306,1854
5307,1850
5308,1847
5309,1840
5310,1830
5311,1822
5312,1808
5313,1803
5314,1802
5315,1802
5316,1804
5317,1809
5318,1817
5319,1832
5320,1842
5321,1854
5322,1855
5323,1849
5324,1846
5325,1840
5326,1834
5327,1824
