,mV
0,
1,1776
2,1808
3,1843
4,1873
5,1899
6,1919
7,1931
8,1936
9,1922
10,1899
11,1861
12,1837
13,1804
14,1779
15,1758
16,1747
17,1744
18,1759
19,1776
20,1802
21,1820
22,1837
23,1849
24,1858
25,1871
26,1871
27,1866
28,1862
29,1856
30,1847
31,1844
32,1840
33,1844
34,1855
35,1869
36,1885
37,1901
38,1909
39,1914
40,1919
41,1920
42,1918
43,1911
44,1908
45,1915
46,1926
47,1942
48,1963
49,1987
50,2018
51,2061
52,2103
53,2155
54,2203
55,2256
56,2306
57,2359
58,2415
59,2463
60,2512
61,2547
62,2592
63,2619
64,2635
65,2641
66,2635
67,2621
68,2597
69,2569
70,2524
71,2474
72,2416
73,2342
74,2261
75,2171
76,2073
77,1968
78,1876
79,1792
80,1718
81,1667
82,1627
83,1609
84,1602
85,1610
86,1622
87,1645
88,1665
89,1682
90,1698
91,1712
92,1715
93,1713
94,1712
95,1707
96,1701
97,1706
98,1711
99,1713
100,1735
101,1756
102,1780
103,1808
104,1831
105,1856
106,1875
107,1894
108,1904
109,1905
110,1904
111,1890
112,1876
113,1872
114,1871
115,1877
116,1886
117,1903
118,1919
119,1934
120,1949
121,1957
122,1968
123,1977
124,1975
125,1974
126,1965
127,1946
128,1930
129,1911
130,1899
131,1885
132,1873
133,1872
134,1875
135,1893
136,1915
137,1938
138,1957
139,1970
140,1978
141,1975
142,1965
143,1948
144,1926
145,1904
146,1885
147,1869
148,1853
149,1840
150,1837
151,1838
152,1851
153,1869
154,1886
155,1905
156,1918
157,1926
158,1929
159,1931
160,1929
161,1922
162,1920
163,1920
164,1923
165,1936
166,1950
167,1963
168,1988
169,2005
170,2019
171,2021
172,2017
173,2005
174,1989
175,1970
176,1948
177,1927
178,1905
179,1897
180,1898
181,1899
182,1905
183,1917
184,1934
185,1953
186,1970
187,1985
188,2000
189,2003
190,2011
191,2006
192,2001
193,1991
194,1971
195,1954
196,1937
197,1933
198,1927
199,1928
200,1936
201,1949
202,1968
203,1984
204,2000
205,2009
206,2000
207,1998
208,1983
209,1965
210,1945
211,1931
212,1917
213,1907
214,1906
215,1920
216,1935
217,1956
218,1984
219,2009
220,2033
221,2057
222,2075
223,2082
224,2079
225,2071
226,2055
227,2029
228,2003
229,1986
230,1972
231,1962
232,1958
233,1962
234,1967
235,1973
236,1975
237,1985
238,1997
239,2007
240,2023
241,2027
242,2028
243,2027
244,2021
245,2018
246,2013
247,2015
248,2017
249,2023
250,2031
251,2043
252,2063
253,2071
254,2075
255,2071
256,2067
257,2065
258,2061
259,2042
260,2038
261,2031
262,2029
263,2027
264,2032
265,2042
266,2062
267,2074
268,2106
269,2135
270,2174
271,2194
272,2221
273,2227
274,2227
275,2226
276,2208
277,2187
278,2159
279,2138
280,2117
281,2100
282,2096
283,2102
284,2121
285,2151
286,2179
287,2203
288,2225
289,2243
290,2256
291,2256
292,2255
293,2243
294,2225
295,2215
296,2199
297,2187
298,2175
299,2161
300,2160
301,2167
302,2182
303,2195
304,2203
305,2208
306,2206
307,2197
308,2188
309,2175
310,2160
311,2146
312,2131
313,2125
314,2126
315,2130
316,2141
317,2160
318,2181
319,2210
320,2234
321,2254
322,2269
323,2277
324,2283
325,2280
326,2259
327,2240
328,2215
329,2185
330,2160
331,2135
332,2122
333,2113
334,2117
335,2131
336,2145
337,2160
338,2174
339,2187
340,2192
341,2191
342,2178
343,2157
344,2127
345,2094
346,2057
347,2017
348,2000
349,1986
350,1985
351,1986
352,1994
353,2001
354,2008
355,2013
356,2007
357,2002
358,1998
359,1984
360,1963
361,1938
362,1919
363,1899
364,1893
365,1887
366,1897
367,1903
368,1922
369,1946
370,1977
371,2000
372,2017
373,2026
374,2027
375,2014
376,1993
377,1959
378,1923
379,1887
380,1860
381,1837
382,1817
383,1807
384,1805
385,1813
386,1826
387,1841
388,1855
389,1853
390,1850
391,1840
392,1834
393,1817
394,1806
395,1798
396,1792
397,1789
398,1792
399,1795
400,1807
401,1823
402,1841
403,1861
404,1882
405,1900
406,1909
407,1918
408,1921
409,1914
410,1895
411,1872
412,1856
413,1845
414,1840
415,1840
416,1840
417,1845
418,1860
419,1876
420,1892
421,1905
422,1909
423,1905
424,1893
425,1873
426,1845
427,1813
428,1781
429,1754
430,1733
431,1721
432,1712
433,1712
434,1721
435,1744
436,1763
437,1781
438,1798
439,1813
440,1831
441,1840
442,1851
443,1855
444,1856
445,1859
446,1869
447,1872
448,1878
449,1887
450,1895
451,1903
452,1914
453,1930
454,1938
455,1947
456,1943
457,1938
458,1927
459,1906
460,1881
461,1853
462,1824
463,1799
464,1786
465,1776
466,1769
467,1776
468,1791
469,1809
470,1840
471,1857
472,1872
473,1882
474,1881
475,1876
476,1861
477,1839
478,1816
479,1797
480,1787
481,1774
482,1768
483,1770
484,1781
485,1808
486,1833
487,1854
488,1871
489,1877
490,1877
491,1873
492,1861
493,1844
494,1831
495,1818
496,1808
497,1805
498,1806
499,1808
500,1821
501,1831
502,1847
503,1862
504,1869
505,1873
506,1872
507,1869
508,1858
509,1845
510,1833
511,1815
512,1808
513,1807
514,1809
515,1821
516,1838
517,1867
518,1899
519,1931
520,1957
521,1968
522,1977
523,1977
524,1967
525,1956
526,1933
527,1903
528,1867
529,1841
530,1817
531,1803
532,1795
533,1794
534,1807
535,1833
536,1858
537,1879
538,1904
539,1921
540,1927
541,1926
542,1913
543,1885
544,1857
545,1835
546,1811
547,1807
548,1808
549,1824
550,1841
551,1871
552,1906
553,1936
554,1963
555,1981
556,1989
557,1994
558,1995
559,1985
560,1973
561,1957
562,1937
563,1922
564,1907
565,1906
566,1903
567,1903
568,1907
569,1917
570,1931
571,1935
572,1938
573,1947
574,1947
575,1941
576,1925
577,1904
578,1887
579,1872
580,1865
581,1855
582,1853
583,1849
584,1855
585,1874
586,1899
587,1919
588,1939
589,1956
590,1965
591,1959
592,1948
593,1927
594,1904
595,1882
596,1863
597,1840
598,1822
599,1812
600,1817
601,1825
602,1840
603,1859
604,1870
605,1878
606,1877
607,1879
608,1872
609,1861
610,1847
611,1840
612,1837
613,1841
614,1856
615,1887
616,1909
617,1936
618,1967
619,1992
620,2013
621,2022
622,2021
623,2011
624,1997
625,1979
626,1949
627,1921
628,1898
629,1880
630,1868
631,1855
632,1850
633,1842
634,1854
635,1872
636,1895
637,1915
638,1936
639,1953
640,1962
641,1963
642,1959
643,1942
644,1921
645,1904
646,1882
647,1867
648,1853
649,1846
650,1850
651,1861
652,1879
653,1906
654,1931
655,1951
656,1963
657,1967
658,1963
659,1953
660,1936
661,1919
662,1901
663,1884
664,1872
665,1872
666,1878
667,1899
668,1923
669,1954
670,1984
671,2012
672,2031
673,2041
674,2043
675,2032
676,2017
677,1998
678,1980
679,1953
680,1925
681,1895
682,1872
683,1859
684,1863
685,1874
686,1895
687,1921
688,1951
689,1971
690,1994
691,2003
692,2006
693,2000
694,1993
695,1979
696,1968
697,1958
698,1951
699,1946
700,1952
701,1959
702,1978
703,1993
704,2006
705,2017
706,2018
707,2017
708,2002
709,1990
710,1970
711,1947
712,1929
713,1919
714,1907
715,1911
716,1915
717,1931
718,1956
719,1984
720,2019
721,2054
722,2076
723,2097
724,2112
725,2119
726,2117
727,2109
728,2094
729,2077
730,2064
731,2055
732,2044
733,2047
734,2054
735,2069
736,2083
737,2095
738,2098
739,2096
740,2096
741,2080
742,2063
743,2033
744,2007
745,1985
746,1979
747,1975
748,1983
749,1995
750,2016
751,2039
752,2068
753,2090
754,2102
755,2111
756,2107
757,2096
758,2084
759,2061
760,2027
761,1991
762,1955
763,1925
764,1901
765,1881
766,1868
767,1865
768,1874
769,1887
770,1903
771,1909
772,1917
773,1910
774,1899
775,1881
776,1859
777,1840
778,1826
779,1811
780,1807
781,1803
782,1803
783,1809
784,1823
785,1840
786,1855
787,1867
788,1875
789,1882
790,1880
791,1872
792,1858
793,1838
794,1807
795,1777
796,1760
797,1750
798,1751
799,1767
800,1797
801,1831
802,1863
803,1893
804,1910
805,1919
806,1907
807,1901
808,1872
809,1856
810,1829
811,1808
812,1789
813,1773
814,1766
815,1771
816,1780
817,1808
818,1840
819,1871
820,1897
821,1914
822,1917
823,1918
824,1904
825,1887
826,1866
827,1842
828,1826
829,1808
830,1795
831,1789
832,1792
833,1799
834,1815
835,1845
836,1871
837,1895
838,1915
839,1930
840,1941
841,1945
842,1947
843,1936
844,1919
845,1898
846,1874
847,1855
848,1845
849,1840
850,1840
851,1853
852,1871
853,1891
854,1908
855,1925
856,1943
857,1964
858,1981
859,1999
860,2011
861,2025
862,2039
863,2064
864,2086
865,2113
866,2147
867,2196
868,2259
869,2335
870,2417
871,2501
872,2582
873,2655
874,2711
875,2763
876,2780
877,2768
878,2736
879,2683
880,2619
881,2543
882,2467
883,2398
884,2336
885,2285
886,2224
887,2171
888,2124
889,2067
890,2006
891,1950
892,1890
893,1833
894,1774
895,1717
896,1667
897,1631
898,1605
899,1597
900,1597
901,1610
902,1634
903,1666
904,1700
905,1737
906,1775
907,1808
908,1838
909,1850
910,1858
911,1858
912,1859
913,1856
914,1856
915,1861
916,1863
917,1874
918,1885
919,1899
920,1905
921,1914
922,1919
923,1919
924,1917
925,1913
926,1903
927,1893
928,1881
929,1875
930,1874
931,1874
932,1874
933,1884
934,1899
935,1911
936,1925
937,1938
938,1952
939,1954
940,1957
941,1953
942,1946
943,1926
944,1905
945,1890
946,1878
947,1877
948,1886
949,1898
950,1911
951,1931
952,1955
953,1978
954,1998
955,2014
956,2022
957,2025
958,2013
959,1986
960,1948
961,1914
962,1886
963,1866
964,1847
965,1841
966,1845
967,1865
968,1892
969,1927
970,1963
971,1986
972,2006
973,2018
974,2026
975,2019
976,2005
977,1987
978,1966
979,1943
980,1926
981,1913
982,1906
983,1904
984,1909
985,1918
986,1927
987,1936
988,1938
989,1939
990,1936
991,1923
992,1911
993,1887
994,1866
995,1843
996,1834
997,1840
998,1859
999,1877
1000,1908
1001,1943
1002,1975
1003,2002
1004,2020
1005,2031
1006,2032
1007,2032
1008,2023
1009,2010
1010,1995
1011,1969
1012,1947
1013,1923
1014,1904
1015,1899
1016,1895
1017,1891
1018,1901
1019,1907
1020,1922
1021,1928
1022,1933
1023,1934
1024,1931
1025,1922
1026,1905
1027,1891
1028,1874
1029,1870
1030,1863
1031,1871
1032,1889
1033,1914
1034,1951
1035,1994
1036,2037
1037,2083
1038,2113
1039,2123
1040,2123
1041,2112
1042,2096
1043,2081
1044,2059
1045,2032
1046,2010
1047,1994
1048,1981
1049,1973
1050,1975
1051,1985
1052,2000
1053,2017
1054,2033
1055,2047
1056,2061
1057,2064
1058,2055
1059,2043
1060,2024
1061,2004
1062,1998
1063,1992
1064,2000
1065,2006
1066,2019
1067,2039
1068,2070
1069,2097
1070,2112
1071,2126
1072,2127
1073,2118
1074,2109
1075,2094
1076,2064
1077,2041
1078,2023
1079,2012
1080,2005
1081,2007
1082,2027
1083,2054
1084,2082
1085,2112
1086,2145
1087,2167
1088,2190
1089,2202
1090,2207
1091,2199
1092,2188
1093,2161
1094,2131
1095,2102
1096,2078
1097,2058
1098,2037
1099,2032
1100,2033
1101,2053
1102,2077
1103,2107
1104,2126
1105,2149
1106,2160
1107,2163
1108,2160
1109,2155
1110,2147
1111,2134
1112,2128
1113,2128
1114,2135
1115,2146
1116,2160
1117,2187
1118,2219
1119,2253
1120,2277
1121,2295
1122,2307
1123,2310
1124,2305
1125,2289
1126,2224
1127,2207
1128,2182
1129,2162
1130,2146
1131,2128
1132,2119
1133,2112
1134,2111
1135,2115
1136,2128
1137,2135
1138,2146
1139,2146
1140,2138
1141,2127
1142,2110
1143,2084
1144,2058
1145,2025
1146,2003
1147,1983
1148,1968
1149,1959
1150,1954
1151,1961
1152,1973
1153,1990
1154,2003
1155,2014
1156,2031
1157,2033
1158,2032
1159,2025
1160,2006
1161,1984
1162,1957
1163,1936
1164,1917
1165,1904
1166,1902
1167,1901
1168,1911
1169,1927
1170,1946
1171,1952
1172,1957
1173,1951
1174,1939
1175,1924
1176,1904
1177,1872
1178,1841
1179,1811
1180,1789
1181,1770
1182,1758
1183,1754
1184,1763
1185,1778
1186,1806
1187,1833
1188,1858
1189,1878
1190,1902
1191,1914
1192,1923
1193,1925
1194,1921
1195,1905
1196,1895
1197,1872
1198,1855
1199,1840
1200,1831
1201,1833
1202,1840
1203,1850
1204,1871
1205,1882
1206,1895
1207,1905
1208,1907
1209,1902
1210,1886
1211,1872
1212,1861
1213,1853
1214,1842
1215,1844
1216,1847
1217,1850
1218,1864
1219,1878
1220,1889
1221,1902
1222,1905
1223,1911
1224,1904
1225,1894
1226,1873
1227,1854
1228,1831
1229,1809
1230,1791
1231,1781
1232,1779
1233,1782
1234,1793
1235,1811
1236,1840
1237,1869
1238,1896
1239,1881
1240,1878
1241,1869
1242,1856
1243,1841
1244,1834
1245,1823
1246,1821
1247,1826
1248,1831
1249,1851
1250,1872
1251,1899
1252,1920
1253,1936
1254,1950
1255,1957
1256,1963
1257,1962
1258,1949
1259,1927
1260,1902
1261,1879
1262,1853
1263,1834
1264,1820
1265,1810
1266,1823
1267,1838
1268,1861
1269,1891
1270,1919
1271,1941
1272,1954
1273,1956
1274,1947
1275,1935
1276,1919
1277,1903
1278,1879
1279,1869
1280,1858
1281,1854
1282,1850
1283,1856
1284,1872
1285,1894
1286,1909
1287,1931
1288,1939
1289,1942
1290,1936
1291,1920
1292,1893
1293,1866
1294,1846
1295,1835
1296,1835
1297,1840
1298,1857
1299,1879
1300,1915
1301,1949
1302,1974
1303,2000
1304,2015
1305,2021
1306,2017
1307,2000
1308,1978
1309,1955
1310,1922
1311,1902
1312,1877
1313,1861
1314,1850
1315,1844
1316,1850
1317,1858
1318,1872
1319,1890
1320,1903
1321,1915
1322,1921
1323,1922
1324,1923
1325,1914
1326,1899
1327,1877
1328,1865
1329,1856
1330,1855
1331,1857
1332,1858
1333,1871
1334,1890
1335,1910
1336,1931
1337,1939
1338,1952
1339,1963
1340,1962
1341,1953
1342,1943
1343,1933
1344,1920
1345,1913
1346,1910
1347,1910
1348,1915
1349,1921
1350,1936
1351,1952
1352,1964
1353,1970
1354,1981
1355,1973
1356,1963
1357,1937
1358,1916
1359,1890
1360,1869
1361,1855
1362,1855
1363,1857
1364,1871
1365,1887
1366,1907
1367,1931
1368,1953
1369,1983
1370,2007
1371,2031
1372,2042
1373,2054
1374,2047
1375,2032
1376,2017
1377,1986
1378,1961
1379,1931
1380,1919
1381,1904
1382,1897
1383,1904
1384,1917
1385,1936
1386,1958
1387,1977
1388,1990
1389,2000
1390,2009
1391,2007
1392,1984
1393,1967
1394,1940
1395,1919
1396,1902
1397,1890
1398,1881
1399,1885
1400,1900
1401,1919
1402,1935
1403,1948
1404,1962
1405,1968
1406,1968
1407,1968
1408,1959
1409,1949
1410,1937
1411,1936
1412,1936
1413,1933
1414,1931
1415,1930
1416,1936
1417,1950
1418,1967
1419,1982
1420,1995
1421,1997
1422,1994
1423,1984
1424,1968
1425,1946
1426,1924
1427,1904
1428,1888
1429,1875
1430,1878
1431,1886
1432,1900
1433,1917
1434,1942
1435,1968
1436,1986
1437,2004
1438,2013
1439,2022
1440,2023
1441,2015
1442,1999
1443,1978
1444,1959
1445,1936
1446,1926
1447,1920
1448,1921
1449,1933
1450,1951
1451,1977
1452,2000
1453,2019
1454,2032
1455,2032
1456,2029
1457,2014
1458,1999
1459,1984
1460,1970
1461,1955
1462,1938
1463,1933
1464,1924
1465,1921
1466,1921
1467,1930
1468,1937
1469,1952
1470,1965
1471,1973
1472,1979
1473,1983
1474,1984
1475,1982
1476,1969
1477,1958
1478,1945
1479,1941
1480,1950
1481,1966
1482,1979
1483,2000
1484,2031
1485,2059
1486,2080
1487,2090
1488,2096
1489,2095
1490,2091
1491,2085
1492,2064
1493,2037
1494,2022
1495,2007
1496,2002
1497,2000
1498,2007
1499,2017
1500,2032
1501,2046
1502,2063
1503,2063
1504,2064
1505,2059
1506,2053
1507,2043
1508,2031
1509,2019
1510,2005
1511,2002
1512,2002
1513,2007
1514,2022
1515,2035
1516,2067
1517,2095
1518,2123
1519,2148
1520,2170
1521,2183
1522,2187
1523,2188
1524,2176
1525,2171
1526,2158
1527,2138
1528,2115
1529,2096
1530,2080
1531,2070
1532,2069
1533,2079
1534,2091
1535,2102
1536,2116
1537,2127
1538,2128
1539,2130
1540,2133
1541,2126
1542,2112
1543,2099
1544,2084
1545,2075
1546,2070
1547,2071
1548,2074
1549,2079
1550,2085
1551,2091
1552,2097
1553,2098
1554,2096
1555,2091
1556,2077
1557,2059
1558,2016
1559,1972
1560,1927
1561,1884
1562,1849
1563,1827
1564,1821
1565,1815
1566,1828
1567,1842
1568,1862
1569,1874
1570,1888
1571,1905
1572,1915
1573,1921
1574,1922
1575,1915
1576,1902
1577,1883
1578,1872
1579,1863
1580,1867
1581,1876
1582,1899
1583,1924
1584,1947
1585,1968
1586,1981
1587,1983
1588,1984
1589,1969
1590,1947
1591,1925
1592,1895
1593,1871
1594,1847
1595,1839
1596,1844
1597,1856
1598,1867
1599,1879
1600,1902
1601,1921
1602,1936
1603,1957
1604,1968
1605,1977
1606,1977
1607,1969
1608,1955
1609,1933
1610,1906
1611,1875
1612,1855
1613,1838
1614,1825
1615,1827
1616,1840
1617,1863
1618,1894
1619,1919
1620,1940
1621,1966
1622,1975
1623,1981
1624,1983
1625,1973
1626,1967
1627,1949
1628,1937
1629,1921
1630,1903
1631,1889
1632,1874
1633,1871
1634,1872
1635,1872
1636,1872
1637,1869
1638,1871
1639,1870
1640,1872
1641,1887
1642,1887
1643,1892
1644,1895
1645,1904
1646,1922
1647,1944
1648,1980
1649,2030
1650,2082
1651,2141
1652,2185
1653,2230
1654,2262
1655,2288
1656,2313
1657,2320
1658,2326
1659,2321
1660,2320
1661,2330
1662,2346
1663,2371
1664,2414
1665,2462
1666,2515
1667,2573
1668,2626
1669,2668
1670,2691
1671,2704
1672,2693
1673,2672
1674,2626
1675,2559
1676,2483
1677,2401
1678,2311
1679,2217
1680,2128
1681,2045
1682,1969
1683,1915
1684,1872
1685,1845
1686,1826
1687,1808
1688,1801
1689,1785
1690,1774
1691,1758
1692,1734
1693,1716
1694,1698
1695,1690
1696,1685
1697,1691
1698,1706
1699,1728
1700,1775
1701,1817
1702,1865
1703,1906
1704,1936
1705,1953
1706,1963
1707,1964
1708,1941
1709,1923
1710,1903
1711,1881
1712,1869
1713,1863
1714,1870
1715,1879
1716,1899
1717,1929
1718,1955
1719,1984
1720,2002
1721,2019
1722,2017
1723,2005
1724,1983
1725,1949
1726,1913
1727,1876
1728,1854
1729,1831
1730,1826
1731,1833
1732,1853
1733,1882
1734,1921
1735,1970
1736,2013
1737,2053
1738,2080
1739,2096
1740,2098
1741,2089
1742,2066
1743,2042
1744,2019
1745,1997
1746,1978
1747,1957
1748,1937
1749,1934
1750,1942
1751,1961
1752,1981
1753,2000
1754,2013
1755,2026
1756,2029
1757,2018
1758,2000
1759,1970
1760,1938
1761,1909
1762,1877
1763,1858
1764,1844
1765,1841
1766,1853
1767,1870
1768,1893
1769,1917
1770,1936
1771,1957
1772,1967
1773,1978
1774,1979
1775,1974
1776,1966
1777,1951
1778,1939
1779,1931
1780,1929
1781,1933
1782,1942
1783,1963
1784,1993
1785,2023
1786,2047
1787,2070
1788,2085
1789,2095
1790,2089
1791,2078
1792,2058
1793,2029
1794,2000
1795,1975
1796,1957
1797,1939
1798,1932
1799,1927
1800,1936
1801,1953
1802,1968
1803,1985
1804,1999
1805,2007
1806,2013
1807,2007
1808,1990
1809,1984
1810,1968
1811,1953
1812,1937
1813,1929
1814,1923
1815,1929
1816,1941
1817,1962
1818,1984
1819,2001
1820,2022
1821,2032
1822,2038
1823,2040
1824,2034
1825,2018
1826,1996
1827,1974
1828,1957
1829,1940
1830,1930
1831,1926
1832,1934
1833,1951
1834,1983
1835,2019
1836,2064
1837,2099
1838,2119
1839,2138
1840,2145
1841,2139
1842,2121
1843,2095
1844,2061
1845,2029
1846,1999
1847,1969
1848,1951
1849,1936
1850,1939
1851,1955
1852,1969
1853,1994
1854,2015
1855,2038
1856,2064
1857,2079
1858,2089
1859,2086
1860,2084
1861,2078
1862,2071
1863,2064
1864,2063
1865,2063
1866,2070
1867,2090
1868,2107
1869,2128
1870,2150
1871,2169
1872,2177
1873,2188
1874,2189
1875,2186
1876,2170
1877,2153
1878,2131
1879,2117
1880,2103
1881,2096
1882,2102
1883,2113
1884,2131
1885,2157
1886,2183
1887,2203
1888,2221
1889,2226
1890,2235
1891,2231
1892,2224
1893,2218
1894,2209
1895,2199
1896,2192
1897,2195
1898,2199
1899,2214
1900,2231
1901,2256
1902,2275
1903,2297
1904,2311
1905,2320
1906,2321
1907,2319
1908,2301
1909,2279
1910,2256
1911,2239
1912,2222
1913,2209
1914,2202
1915,2203
1916,2209
1917,2224
1918,2245
1919,2257
1920,2267
1921,2273
1922,2271
1923,2264
1924,2255
1925,2238
1926,2219
1927,2194
1928,2178
1929,2161
1930,2147
1931,2143
1932,2139
1933,2147
1934,2163
1935,2176
1936,2188
1937,2192
1938,2195
1939,2196
1940,2192
1941,2176
1942,2154
1943,2126
1944,2099
1945,2074
1946,2064
1947,2047
1948,2062
1949,2075
1950,2094
1951,2126
1952,2147
1953,2171
1954,2191
1955,2192
1956,2187
1957,2166
1958,2135
1959,2100
1960,2063
1961,2023
1962,1994
1963,1969
1964,1953
1965,1946
1966,1949
1967,1967
1968,1984
1969,1999
1970,2010
1971,2023
1972,2025
1973,2020
1974,2012
1975,1993
1976,1968
1977,1937
1978,1911
1979,1890
1980,1873
1981,1865
1982,1859
1983,1868
1984,1881
1985,1898
1986,1917
1987,1927
1988,1930
1989,1930
1990,1929
1991,1919
1992,1901
1993,1879
1994,1866
1995,1854
1996,1851
1997,1853
1998,1858
1999,1870
2000,1887
2001,1905
2002,1920
2003,1927
2004,1934
2005,1924
2006,1916
2007,1904
2008,1873
2009,1851
2010,1829
2011,1811
2012,1792
2013,1782
2014,1786
2015,1795
2016,1821
2017,1850
2018,1882
2019,1914
2020,1941
2021,1965
2022,1973
2023,1975
2024,1968
2025,1950
2026,1926
2027,1901
2028,1876
2029,1855
2030,1840
2031,1828
2032,1819
2033,1829
2034,1843
2035,1854
2036,1864
2037,1865
2038,1869
2039,1869
2040,1861
2041,1854
2042,1838
2043,1818
2044,1804
2045,1789
2046,1780
2047,1776
2048,1776
2049,1780
2050,1795
2051,1815
2052,1838
2053,1851
2054,1866
2055,1874
2056,1884
2057,1885
2058,1877
2059,1878
2060,1872
2061,1872
2062,1863
2063,1873
2064,1882
2065,1891
2066,1907
2067,1927
2068,1947
2069,1967
2070,1971
2071,1978
2072,1970
2073,1961
2074,1939
2075,1911
2076,1878
2077,1843
2078,1811
2079,1791
2080,1775
2081,1766
2082,1775
2083,1791
2084,1817
2085,1840
2086,1855
2087,1870
2088,1872
2089,1869
2090,1865
2091,1864
2092,1853
2093,1847
2094,1840
2095,1840
2096,1846
2097,1855
2098,1869
2099,1883
2100,1903
2101,1918
2102,1938
2103,1951
2104,1955
2105,1952
2106,1941
2107,1921
2108,1900
2109,1871
2110,1843
2111,1831
2112,1822
2113,1823
2114,1839
2115,1855
2116,1884
2117,1911
2118,1939
2119,1966
2120,1980
2121,1995
2122,1995
2123,1984
2124,1967
2125,1936
2126,1904
2127,1872
2128,1849
2129,1830
2130,1827
2131,1834
2132,1843
2133,1868
2134,1895
2135,1925
2136,1942
2137,1962
2138,1968
2139,1969
2140,1967
2141,1952
2142,1929
2143,1903
2144,1874
2145,1855
2146,1844
2147,1837
2148,1837
2149,1843
2150,1859
2151,1882
2152,1906
2153,1925
2154,1939
2155,1953
2156,1958
2157,1955
2158,1952
2159,1938
2160,1929
2161,1920
2162,1907
2163,1904
2164,1904
2165,1909
2166,1918
2167,1937
2168,1956
2169,1975
2170,1985
2171,1989
2172,1989
2173,1981
2174,1967
2175,1947
2176,1926
2177,1904
2178,1886
2179,1875
2180,1869
2181,1872
2182,1872
2183,1882
2184,1899
2185,1907
2186,1916
2187,1918
2188,1920
2189,1919
2190,1911
2191,1907
2192,1895
2193,1885
2194,1876
2195,1873
2196,1875
2197,1881
2198,1885
2199,1899
2200,1914
2201,1938
2202,1961
2203,1981
2204,
2205,
2206,
2207,1990
2208,1995
2209,1990
2210,1981
2211,1969
2212,1954
2213,1936
2214,1917
2215,1902
2216,1879
2217,1872
2218,1872
2219,1877
2220,1895
2221,1910
2222,1923
2223,1936
2224,1937
2225,1938
2226,1933
2227,1920
2228,1903
2229,1881
2230,1870
2231,1856
2232,1854
2233,1858
2234,1873
2235,1893
2236,1929
2237,1967
2238,1998
2239,2032
2240,2047
2241,2046
2242,2033
2243,2017
2244,1990
2245,1965
2246,1936
2247,1915
2248,1901
2249,1891
2250,1885
2251,1886
2252,1893
2253,1903
2254,1931
2255,1946
2256,1966
2257,1975
2258,1975
2259,1970
2260,1963
2261,1943
2262,1923
2263,1901
2264,1882
2265,1868
2266,1867
2267,1866
2268,1872
2269,1889
2270,1906
2271,1935
2272,1966
2273,1910
2274,1936
2275,1965
2276,1987
2277,2013
2278,2033
2279,2044
2280,2046
2281,2045
2282,2032
2283,2012
2284,
2285,
2286,1988
2287,1971
2288,1951
2289,1936
2290,1921
2291,1919
2292,1925
2293,1934
2294,1950
2295,1963
2296,1966
2297,1968
2298,1965
2299,1949
2300,1934
2301,1911
2302,1886
2303,1870
2304,1849
2305,1841
2306,1841
2307,1848
2308,1862
2309,1891
2310,1929
2311,1968
2312,2002
2313,2033
2314,2061
2315,2064
2316,2064
2317,2046
2318,2021
2319,1991
2320,1968
2321,1943
2322,1932
2323,
2324,
2325,1920
2326,1920
2327,1927
2328,1944
2329,1971
2330,1995
2331,2009
2332,2020
2333,2027
2334,2023
2335,2013
2336,2000
2337,1983
2338,1959
2339,1944
2340,1930
2341,1922
2342,1918
2343,1924
2344,1939
2345,2021
2346,2000
2347,1968
2348,1935
2349,1899
2350,1872
2351,1846
2352,1831
2353,1821
2354,1815
2355,1821
2356,1831
2357,1840
2358,1849
2359,1853
2360,
2361,
2362,1847
2363,1836
2364,1815
2365,1795
2366,1776
2367,1773
2368,1771
2369,1781
2370,1796
2371,1820
2372,1839
2373,1862
2374,1887
2375,1914
2376,1936
2377,1950
2378,1955
2379,1950
2380,1945
2381,1932
2382,1907
2383,1879
2384,1853
2385,1827
2386,1807
2387,1793
2388,1791
2389,1802
2390,1815
2391,1842
2392,1871
2393,1899
2394,1919
2395,1933
2396,1935
2397,1921
2398,1905
2399,2295
2400,2337
2401,2373
2402,2403
2403,2432
2404,2457
2405,2490
2406,2525
2407,2558
2408,2601
2409,2631
2410,2646
2411,2661
2412,2665
2413,2655
2414,2635
2415,2594
2416,2539
2417,2479
2418,2407
2419,2325
2420,2231
2421,2143
2422,2046
2423,1958
2424,1882
2425,1816
2426,2005
2427,1981
2428,1953
2429,1934
2430,1913
2431,1899
2432,1887
2433,1883
2434,
2435,
2436,1894
2437,1904
2438,1919
2439,1936
2440,1949
2441,1964
2442,1967
2443,1959
2444,1951
2445,1939
2446,1931
2447,1927
2448,1932
2449,1933
2450,1936
2451,1946
2452,1956
2453,1971
2454,1995
2455,2016
2456,2032
2457,2041
2458,2054
2459,2055
2460,2045
2461,2030
2462,2010
2463,1993
2464,1967
2465,1950
2466,1936
2467,1925
2468,1920
2469,1926
2470,1934
2471,1953
2472,1968
2473,1981
2474,1993
2475,2000
2476,2007
2477,2013
2478,2017
2479,2007
2480,2002
2481,1987
2482,1968
2483,1950
2484,1936
2485,1933
2486,1930
2487,1936
2488,1951
2489,1968
2490,1971
2491,1984
2492,1985
2493,1985
2494,1979
2495,1974
2496,1968
2497,1955
2498,1954
2499,1950
2500,1951
2501,2065
2502,2031
2503,2000
2504,1982
2505,1967
2506,1961
2507,1963
2508,
2509,
2510,1979
2511,2000
2512,2021
2513,2054
2514,2070
2515,2093
2516,2094
2517,2094
2518,2078
2519,2064
2520,2038
2521,2023
2522,2017
2523,2017
2524,2022
2525,2038
2526,2061
2527,2087
2528,2117
2529,2141
2530,2169
2531,2186
2532,2201
2533,2207
2534,2211
2535,2201
2536,2181
2537,2159
2538,2129
2539,2112
2540,2102
2541,2099
2542,2103
2543,2115
2544,2135
2545,2158
2546,2169
2547,2182
2548,2186
2549,2192
2550,2194
2551,2189
2552,2175
2553,2160
2554,2146
2555,2138
2556,2138
2557,2141
2558,2153
2559,2166
2560,2191
2561,2213
2562,2239
2563,2256
2564,2274
2565,2279
2566,2282
2567,2278
2568,2261
2569,2247
2570,2226
2571,2206
2572,2190
2573,2032
2574,2026
2575,2032
2576,2047
2577,2064
2578,2074
2579,2079
2580,2085
2581,2083
2582,
2583,
2584,2074
2585,2064
2586,2043
2587,2021
2588,2000
2589,1979
2590,1953
2591,1934
2592,1915
2593,1904
2594,1904
2595,1905
2596,1910
2597,1916
2598,1915
2599,1905
2600,1902
2601,1884
2602,1864
2603,1835
2604,1808
2605,1776
2606,1756
2607,1743
2608,1735
2609,1742
2610,1757
2611,1786
2612,1822
2613,1857
2614,1892
2615,1920
2616,1940
2617,1955
2618,1960
2619,1946
2620,1926
2621,1904
2622,1881
2623,1861
2624,1840
2625,1826
2626,1819
2627,1818
2628,1825
2629,1846
2630,1857
2631,1872
2632,1875
2633,1872
2634,1863
2635,1841
2636,1812
2637,1786
2638,1755
2639,1737
2640,1727
2641,1729
2642,1838
2643,1818
2644,1805
2645,1799
2646,1799
2647,1805
2648,1814
2649,1832
2650,1846
2651,1863
2652,1872
2653,1873
2654,1877
2655,
2656,
2657,1862
2658,1840
2659,1821
2660,1793
2661,1773
2662,1751
2663,1747
2664,1750
2665,1759
2666,1777
2667,1797
2668,1830
2669,1856
2670,1877
2671,1895
2672,1901
2673,1898
2674,1881
2675,1856
2676,1823
2677,1793
2678,1764
2679,1749
2680,1741
2681,1742
2682,1747
2683,1767
2684,1786
2685,1808
2686,1830
2687,1851
2688,1863
2689,1874
2690,1881
2691,1887
2692,1884
2693,1870
2694,1858
2695,1845
2696,1833
2697,1824
2698,1822
2699,1821
2700,1834
2701,1845
2702,1869
2703,1887
2704,1909
2705,1921
2706,1926
2707,1930
2708,1919
2709,1902
2710,1874
2711,1854
2712,1838
2713,1826
2714,1823
2715,1819
2716,1829
2717,1841
2718,1859
2719,1879
2720,1893
2721,1904
2722,1838
2723,1853
2724,1878
2725,1904
2726,1922
2727,1937
2728,1946
2729,1939
2730,1926
2731,
2732,
2733,
2734,1904
2735,1876
2736,1854
2737,1834
2738,1815
2739,1808
2740,1808
2741,1811
2742,1825
2743,1847
2744,1873
2745,1904
2746,1925
2747,1938
2748,1951
2749,1959
2750,1953
2751,1939
2752,1920
2753,1892
2754,1866
2755,1843
2756,1831
2757,1823
2758,1823
2759,1837
2760,1855
2761,1872
2762,1884
2763,1902
2764,1908
2765,1909
2766,1906
2767,1904
2768,1891
2769,1879
2770,1865
2771,1853
2772,1840
2773,1834
2774,1829
2775,1833
2776,1840
2777,1853
2778,1867
2779,1875
2780,1885
2781,1891
2782,1890
2783,1886
2784,1873
2785,1865
2786,1858
2787,1850
2788,1843
2789,1841
2790,1847
2791,1855
2792,1869
2793,1894
2794,1920
2795,1941
2796,1959
2797,1975
2798,1982
2799,2012
2800,2002
2801,1984
2802,1958
2803,
2804,
2805,1935
2806,1905
2807,1883
2808,1863
2809,1849
2810,1843
2811,1842
2812,1855
2813,1872
2814,1889
2815,1909
2816,1921
2817,1936
2818,1949
2819,1958
2820,1963
2821,1953
2822,1942
2823,1930
2824,1917
2825,1907
2826,1901
2827,1895
2828,1902
2829,1911
2830,1936
2831,1950
2832,1967
2833,1977
2834,1978
2835,1982
2836,1965
2837,1947
2838,1922
2839,1902
2840,1886
2841,1870
2842,1863
2843,1863
2844,1873
2845,1889
2846,1908
2847,1934
2848,1946
2849,1953
2850,1957
2851,1955
2852,1950
2853,1939
2854,1921
2855,1908
2856,1888
2857,1877
2858,1874
2859,1873
2860,1879
2861,1893
2862,1911
2863,1936
2864,1969
2865,1991
2866,2010
2867,2026
2868,2032
2869,2087
2870,2086
2871,2082
2872,2066
2873,2041
2874,2016
2875,1990
2876,1973
2877,1968
2878,1968
2879,1975
2880,
2881,1995
2882,2023
2883,2062
2884,2095
2885,2130
2886,2157
2887,2171
2888,2170
2889,2162
2890,2146
2891,2113
2892,2083
2893,2047
2894,2025
2895,2011
2896,2000
2897,2000
2898,2010
2899,2021
2900,2039
2901,2058
2902,2067
2903,2071
2904,2069
2905,2062
2906,2035
2907,2015
2908,1990
2909,1970
2910,1954
2911,1940
2912,1934
2913,1931
2914,1931
2915,1945
2916,1956
2917,1968
2918,1981
2919,1984
2920,1982
2921,1965
2922,1950
2923,1924
2924,1894
2925,1867
2926,1837
2927,1817
2928,1796
2929,1789
2930,1786
2931,1791
2932,1809
2933,1831
2934,1847
2935,1870
2936,1873
2937,1882
2938,1879
2939,1872
2940,1861
2941,1837
2942,1814
2943,1793
2944,1948
2945,1947
2946,1949
2947,1938
2948,1921
2949,1905
2950,1888
2951,1874
2952,1872
2953,1874
2954,1874
2955,1883
2956,1899
2957,1907
2958,
2959,
2960,1923
2961,1931
2962,1930
2963,1924
2964,1909
2965,1897
2966,1872
2967,1842
2968,1820
2969,1792
2970,1779
2971,1776
2972,1778
2973,1799
2974,1830
2975,1871
2976,1913
2977,1951
2978,1984
2979,2007
2980,2032
2981,2055
2982,2064
2983,2071
2984,2083
2985,2096
2986,2112
2987,2128
2988,2151
2989,2177
2990,2212
2991,2261
2992,2310
2993,2368
2994,2423
2995,2475
2996,2529
2997,2575
2998,2608
2999,2624
3000,2631
3001,2619
3002,2596
3003,2559
3004,2517
3005,2480
3006,2442
3007,2398
3008,2363
3009,2323
3010,2278
3011,2224
3012,2157
3013,2087
3014,2001
3015,1917
3016,1841
3017,1754
3018,1905
3019,1911
3020,1903
3021,1891
3022,1882
3023,1873
3024,1870
3025,1872
3026,1879
3027,1897
3028,1920
3029,1949
3030,1976
3031,2002
3032,
3033,
3034,2021
3035,2032
3036,2032
3037,2020
3038,2002
3039,1984
3040,1959
3041,1933
3042,1907
3043,1893
3044,1881
3045,1880
3046,1888
3047,1902
3048,1920
3049,1939
3050,1958
3051,1973
3052,1983
3053,1984
3054,1983
3055,1973
3056,1951
3057,1929
3058,1904
3059,1885
3060,1872
3061,1862
3062,1861
3063,1871
3064,1892
3065,1920
3066,1949
3067,1981
3068,1999
3069,2011
3070,2019
3071,2017
3072,2009
3073,1997
3074,1975
3075,1959
3076,1945
3077,1936
3078,1934
3079,1933
3080,1937
3081,1943
3082,1967
3083,1983
3084,1994
3085,1999
3086,2000
3087,1998
3088,1991
3089,1979
3090,1967
3091,1943
3092,1930
3093,1917
3094,1911
3095,1910
3096,1913
3097,1923
3098,1983
3099,1957
3100,1941
3101,1936
3102,1931
3103,1940
3104,1966
3105,1983
3106,2002
3107,
3108,
3109,2027
3110,2041
3111,2055
3112,2045
3113,2038
3114,2028
3115,2007
3116,1990
3117,1975
3118,1967
3119,1963
3120,1967
3121,1972
3122,1986
3123,2012
3124,2039
3125,2068
3126,2091
3127,2102
3128,2111
3129,2113
3130,2106
3131,2091
3132,2073
3133,2061
3134,2037
3135,2032
3136,2031
3137,2032
3138,2047
3139,2073
3140,2101
3141,2125
3142,2142
3143,2151
3144,2150
3145,2141
3146,2129
3147,2103
3148,2077
3149,2047
3150,2032
3151,2027
3152,2032
3153,2046
3154,2067
3155,2093
3156,2123
3157,2149
3158,2170
3159,2181
3160,2186
3161,2175
3162,2163
3163,2147
3164,2126
3165,2098
3166,2080
3167,2059
3168,2054
3169,2056
3170,2065
3171,2077
3172,2096
3173,2118
3174,2113
3175,2139
3176,2161
3177,2185
3178,2198
3179,2205
3180,2205
3181,2201
3182,2192
3183,2176
3184,
3185,
3186,2159
3187,2141
3188,2128
3189,2118
3190,2118
3191,2122
3192,2128
3193,2141
3194,2158
3195,2168
3196,2171
3197,2167
3198,2159
3199,2147
3200,2123
3201,2097
3202,2064
3203,2031
3204,2003
3205,1989
3206,1975
3207,1967
3208,1962
3209,1967
3210,1980
3211,1997
3212,2010
3213,2022
3214,2027
3215,2030
3216,2028
3217,2021
3218,2011
3219,2000
3220,1983
3221,1967
3222,1951
3223,1935
3224,1921
3225,1919
3226,1919
3227,1926
3228,1937
3229,1948
3230,1957
3231,1968
3232,1967
3233,1962
3234,1942
3235,1921
3236,1889
3237,1857
3238,1831
3239,1808
3240,1798
3241,1803
3242,1805
3243,
3244,
3245,1894
3246,1909
3247,1919
3248,1920
3249,1914
3250,1904
3251,1877
3252,1853
3253,1831
3254,1812
3255,1799
3256,1782
3257,1793
3258,1795
3259,1810
3260,1839
3261,1849
3262,1872
3263,1877
3264,1875
3265,1810
3266,1825
3267,1842
3268,1846
3269,1856
3270,1851
3271,1839
3272,1820
3273,1799
3274,1783
3275,1773
3276,1769
3277,1769
3278,1774
3279,1790
3280,1808
3281,1835
3282,1854
3283,1867
3284,1878
3285,
3286,
3287,1887
3288,1889
3289,1886
3290,1873
3291,1861
3292,1846
3293,1831
3294,1818
3295,1811
3296,1810
3297,1821
3298,1838
3299,1858
3300,1877
3301,1903
3302,1915
3303,1925
3304,1933
3305,1926
3306,1906
3307,1887
3308,1862
3309,1840
3310,1823
3311,1809
3312,1808
3313,1813
3314,1825
3315,1840
3316,1856
3317,1872
3318,1879
3319,1903
3320,1914
3321,1875
3322,1839
3323,1805
3324,1782
3325,1764
3326,1762
3327,1772
3328,1786
3329,1817
3330,1857
3331,1899
3332,1935
3333,1957
3334,1977
3335,1983
3336,1977
3337,1965
3338,1942
3339,1915
3340,1887
3341,1863
3342,1842
3343,1839
3344,1831
3345,1840
3346,1857
3347,1877
3348,1905
3349,1921
3350,1936
3351,1943
3352,1941
3353,1856
3354,1837
3355,1819
3356,1809
3357,1818
3358,1832
3359,1857
3360,1885
3361,1911
3362,1933
3363,1950
3364,1953
3365,1949
3366,1940
3367,1934
3368,1916
3369,1895
3370,1879
3371,1868
3372,1855
3373,1850
3374,1850
3375,1856
3376,1871
3377,1889
3378,1908
3379,1925
3380,1931
3381,
3382,
3383,1841
3384,1851
3385,1868
3386,1883
3387,1907
3388,1925
3389,1936
3390,1947
3391,1947
3392,1938
3393,1930
3394,1906
3395,1887
3396,1870
3397,1856
3398,1853
3399,1854
3400,1856
3401,1867
3402,1879
3403,1900
3404,1915
3405,1931
3406,1942
3407,1951
3408,1952
3409,1950
3410,1936
3411,1919
3412,1901
3413,1881
3414,1863
3415,1852
3416,1840
3417,1840
3418,1840
3419,1850
3420,1863
3421,1873
3422,1889
3423,1899
3424,1904
3425,1904
3426,1895
3427,1884
3428,1867
3429,1849
3430,1835
3431,1823
3432,1823
3433,1831
3434,1840
3435,1857
3436,1881
3437,1909
3438,1932
3439,1949
3440,1959
3441,1968
3442,1968
3443,1967
3444,1951
3445,1936
3446,1923
3447,2080
3448,2063
3449,2032
3450,2000
3451,1968
3452,1937
3453,1913
3454,1904
3455,1897
3456,1906
3457,1921
3458,1950
3459,
3460,
3461,1970
3462,1992
3463,2007
3464,2016
3465,2023
3466,2028
3467,2021
3468,2009
3469,1999
3470,1987
3471,1978
3472,1975
3473,1975
3474,1985
3475,1999
3476,2014
3477,2035
3478,2067
3479,2100
3480,2117
3481,2130
3482,2135
3483,2139
3484,2128
3485,2109
3486,2093
3487,2077
3488,2061
3489,2037
3490,2032
3491,2029
3492,2027
3493,2035
3494,2043
3495,2058
3496,2062
3497,2063
3498,2064
3499,2061
3500,2059
3501,2039
3502,2023
3503,2001
3504,1990
3505,1984
3506,1977
3507,1983
3508,1989
3509,2006
3510,2029
3511,2047
3512,2067
3513,2069
3514,2065
3515,2042
3516,2011
3517,1975
3518,1937
3519,1893
3520,1856
3521,1822
3522,1923
3523,1926
3524,1917
3525,1904
3526,1883
3527,1862
3528,1845
3529,1835
3530,1825
3531,1823
3532,1831
3533,1845
3534,1863
3535,
3536,
3537,1874
3538,1899
3539,1907
3540,1914
3541,1914
3542,1910
3543,1901
3544,1884
3545,1870
3546,1849
3547,1835
3548,1824
3549,1818
3550,1812
3551,1821
3552,1830
3553,1835
3554,1847
3555,1852
3556,1863
3557,1871
3558,1873
3559,1872
3560,1869
3561,1857
3562,1847
3563,1840
3564,1838
3565,1835
3566,1828
3567,1835
3568,1850
3569,1869
3570,1885
3571,1901
3572,1916
3573,1930
3574,1941
3575,1955
3576,1956
3577,1958
3578,1963
3579,1970
3580,1984
3581,2003
3582,2032
3583,2073
3584,2115
3585,2161
3586,2212
3587,2255
3588,2294
3589,2325
3590,2352
3591,2368
3592,2381
3593,2388
3594,2402
3595,2419
3596,2448
3597,2479
3598,2511
3599,2543
3600,2567
3601,1689
3602,1705
3603,1719
3604,1737
3605,1760
3606,1783
3607,1807
3608,1829
3609,1858
3610,1878
3611,
3612,
3613,1891
3614,1903
3615,1899
3616,1897
3617,1878
3618,1856
3619,1824
3620,1795
3621,1776
3622,1760
3623,1759
3624,1766
3625,1782
3626,1810
3627,1847
3628,1895
3629,1938
3630,1978
3631,2003
3632,2014
3633,2018
3634,2011
3635,1994
3636,1968
3637,1937
3638,1915
3639,1893
3640,1883
3641,1883
3642,1886
3643,1906
3644,1929
3645,1963
3646,1985
3647,2005
3648,2016
3649,2019
3650,2005
3651,1986
3652,1951
3653,1916
3654,1874
3655,1845
3656,1824
3657,1803
3658,1798
3659,1807
3660,1823
3661,1855
3662,1895
3663,1930
3664,1966
3665,1987
3666,2004
3667,2015
3668,2015
3669,2004
3670,1988
3671,1968
3672,1949
3673,1931
3674,1920
3675,1914
3676,1915
3677,1927
3678,1904
3679,1893
3680,1887
3681,1898
3682,1911
3683,1926
3684,1942
3685,1964
3686,1968
3687,1975
3688,1975
3689,1969
3690,1959
3691,
3692,
3693,1945
3694,1936
3695,1930
3696,1926
3697,1923
3698,1927
3699,1943
3700,1967
3701,1990
3702,2013
3703,2034
3704,2058
3705,2068
3706,2073
3707,2069
3708,2053
3709,2028
3710,2002
3711,1984
3712,1972
3713,1966
3714,1962
3715,1962
3716,1969
3717,1987
3718,2010
3719,2030
3720,2043
3721,2054
3722,2054
3723,2046
3724,2034
3725,2017
3726,1995
3727,1970
3728,1952
3729,1939
3730,1935
3731,1936
3732,1943
3733,1965
3734,1989
3735,2013
3736,2035
3737,2061
3738,2071
3739,2079
3740,2085
3741,2085
3742,2079
3743,2073
3744,2065
3745,2065
3746,2064
3747,2064
3748,2066
3749,2080
3750,2090
3751,2110
3752,2118
3753,2133
3754,2122
3755,2112
3756,2103
3757,2110
3758,2115
3759,2129
3760,2151
3761,2162
3762,2176
3763,2192
3764,2193
3765,2192
3766,2187
3767,2179
3768,2173
3769,2167
3770,
3771,
3772,2170
3773,2173
3774,2182
3775,2196
3776,2222
3777,2241
3778,2259
3779,2265
3780,2265
3781,2261
3782,2245
3783,2227
3784,2199
3785,2164
3786,2132
3787,2104
3788,2085
3789,2074
3790,2078
3791,2079
3792,2093
3793,2118
3794,2142
3795,2169
3796,2182
3797,2191
3798,2192
3799,2186
3800,2167
3801,2145
3802,2119
3803,2097
3804,2073
3805,2054
3806,2035
3807,2031
3808,2032
3809,2041
3810,2063
3811,2078
3812,2087
3813,2096
3814,2097
3815,2093
3816,2078
3817,2059
3818,2033
3819,2009
3820,1991
3821,1974
3822,1965
3823,1955
3824,1951
3825,1953
3826,1963
3827,1968
3828,1977
3829,1981
3830,1982
3831,1978
3832,1825
3833,1856
3834,1873
3835,1886
3836,1891
3837,1887
3838,1872
3839,1857
3840,
3841,
3842,1839
3843,1824
3844,1808
3845,1793
3846,1781
3847,1779
3848,1778
3849,1795
3850,1815
3851,1839
3852,1855
3853,1865
3854,1867
3855,1861
3856,1855
3857,1840
3858,1824
3859,1808
3860,1799
3861,1795
3862,1792
3863,1794
3864,1797
3865,1808
3866,1819
3867,1839
3868,1849
3869,1861
3870,1867
3871,1865
3872,1857
3873,1846
3874,1824
3875,1797
3876,1764
3877,1737
3878,1712
3879,1696
3880,1682
3881,1680
3882,1686
3883,1706
3884,1735
3885,1766
3886,1803
3887,1839
3888,1871
3889,1895
3890,1908
3891,1910
3892,1907
3893,1900
3894,1889
3895,1876
3896,1869
3897,1854
3898,1841
3899,1844
3900,1847
3901,1856
3902,1855
3903,1856
3904,1854
3905,1850
3906,1839
3907,1811
3908,1824
3909,1832
3910,1840
3911,1841
3912,1840
3913,1835
3914,1825
3915,1808
3916,1794
3917,1780
3918,1776
3919,1776
3920,1777
3921,1783
3922,1799
3923,1825
3924,1857
3925,
3926,
3927,1891
3928,1919
3929,1937
3930,1945
3931,1936
3932,1919
3933,1890
3934,1867
3935,1840
3936,1811
3937,1797
3938,1789
3939,1783
3940,1782
3941,1791
3942,1807
3943,1824
3944,1840
3945,1856
3946,1872
3947,1879
3948,1878
3949,1872
3950,1855
3951,1840
3952,1826
3953,1809
3954,1808
3955,1806
3956,1803
3957,1808
3958,1818
3959,1845
3960,1867
3961,1891
3962,1904
3963,1916
3964,1919
3965,1915
3966,1901
3967,1875
3968,1856
3969,1839
3970,1823
3971,1814
3972,1819
3973,1827
3974,1838
3975,1861
3976,1887
3977,1917
3978,1938
3979,1952
3980,1957
3981,1950
3982,1939
3983,1921
3984,1895
3985,1915
3986,1915
3987,1915
3988,1905
3989,1899
3990,1884
3991,1872
3992,1862
3993,1857
3994,1857
3995,1863
3996,
3997,1872
3998,1883
3999,1901
4000,1911
4001,1922
4002,1920
4003,1910
4004,1899
4005,1879
4006,1857
4007,1833
4008,1809
4009,1795
4010,1787
4011,1784
4012,1789
4013,1793
4014,1807
4015,1828
4016,1847
4017,1867
4018,1889
4019,1895
4020,1901
4021,1894
4022,1879
4023,1861
4024,1840
4025,1815
4026,1799
4027,1792
4028,1785
4029,1792
4030,1811
4031,1845
4032,1882
4033,1920
4034,1954
4035,1978
4036,1998
4037,2001
4038,1999
4039,1984
4040,1959
4041,1929
4042,1903
4043,1872
4044,1849
4045,1835
4046,1815
4047,1810
4048,1818
4049,1835
4050,1851
4051,1863
4052,1869
4053,1873
4054,1878
4055,1879
4056,1872
4057,1858
4058,1845
4059,1836
4060,1828
4061,1823
4062,1885
4063,1869
4064,1847
4065,1829
4066,1826
4067,1827
4068,1847
4069,1865
4070,1899
4071,1935
4072,1978
4073,2013
4074,2037
4075,
4076,
4077,2057
4078,2061
4079,2046
4080,2025
4081,1991
4082,1954
4083,1915
4084,1881
4085,1854
4086,1831
4087,1821
4088,1826
4089,1840
4090,1867
4091,1898
4092,1929
4093,1955
4094,1970
4095,1978
4096,1972
4097,1959
4098,1927
4099,1898
4100,1872
4101,1854
4102,1846
4103,1850
4104,1866
4105,1883
4106,1910
4107,1943
4108,1970
4109,1993
4110,2009
4111,2018
4112,2014
4113,2007
4114,1990
4115,1967
4116,1941
4117,1925
4118,1906
4119,1904
4120,1902
4121,1911
4122,1929
4123,1951
4124,1974
4125,1999
4126,2015
4127,2030
4128,2043
4129,2057
4130,2059
4131,2054
4132,2038
4133,2028
4134,2015
4135,2001
4136,1994
4137,1995
4138,1999
4139,2007
4140,
4141,
4142,
4143,2006
4144,2009
4145,2013
4146,2017
4147,2028
4148,2039
4149,2053
4150,2058
4151,2047
4152,2042
4153,2032
4154,2014
4155,1987
4156,1963
4157,1925
4158,1898
4159,1866
4160,1853
4161,1840
4162,1837
4163,1842
4164,1857
4165,1879
4166,1901
4167,1917
4168,1923
4169,1922
4170,1915
4171,1891
4172,1866
4173,1840
4174,1810
4175,1793
4176,1788
4177,1786
4178,1792
4179,1807
4180,1827
4181,1850
4182,1885
4183,
4184,
4185,1911
4186,1927
4187,1931
4188,1924
4189,1906
4190,1885
4191,1855
4192,1829
4193,1808
4194,1798
4195,1795
4196,1799
4197,1809
4198,1830
4199,1855
4200,1882
4201,1905
4202,2375
4203,2440
4204,2512
4205,2599
4206,2678
4207,2742
4208,2785
4209,2807
4210,2800
4211,2767
4212,2711
4213,2639
4214,2551
4215,2463
4216,2374
4217,2290
4218,2212
4219,2140
4220,2075
4221,2019
4222,1969
4223,1931
4224,1895
4225,1859
4226,1825
4227,1787
4228,1755
4229,1727
4230,1691
4231,1663
4232,1637
4233,1622
4234,
4235,
4236,1619
4237,1621
4238,1640
4239,1659
4240,1694
4241,1733
4242,1776
4243,1818
4244,1852
4245,1872
4246,1892
4247,1899
4248,1895
4249,1881
4250,1863
4251,1841
4252,1821
4253,1808
4254,1802
4255,1808
4256,1830
4257,1859
4258,1895
4259,1927
4260,1958
4261,1974
4262,1984
4263,1987
4264,1983
4265,1973
4266,1961
4267,1941
4268,1923
4269,1907
4270,1902
4271,1894
4272,1887
4273,1887
4274,1902
4275,1977
4276,1946
4277,1915
4278,1883
4279,1858
4280,1843
4281,1830
4282,1833
4283,1843
4284,1867
4285,1904
4286,1937
4287,1969
4288,1991
4289,2000
4290,2003
4291,2000
4292,1993
4293,1983
4294,1968
4295,1954
4296,1941
4297,1938
4298,1941
4299,1947
4300,1965
4301,1984
4302,2003
4303,2025
4304,2035
4305,2042
4306,2044
4307,2039
4308,2032
4309,2011
4310,1993
4311,1969
4312,1954
4313,1947
4314,2036
4315,2063
4316,2079
4317,2083
4318,2089
4319,2084
4320,2074
4321,2058
4322,2037
4323,2019
4324,
4325,
4326,2006
4327,1998
4328,1998
4329,2005
4330,2023
4331,2047
4332,2083
4333,2111
4334,2133
4335,2151
4336,2171
4337,2176
4338,2177
4339,2160
4340,2143
4341,2121
4342,2098
4343,2085
4344,2074
4345,2074
4346,2080
4347,2093
4348,2111
4349,2130
4350,2149
4351,2164
4352,2177
4353,2182
4354,2181
4355,2180
4356,2170
4357,2160
4358,2151
4359,2144
4360,2144
4361,2144
4362,2145
4363,2145
4364,2155
4365,2164
4366,2188
4367,2205
4368,2226
4369,2242
4370,2256
4371,2257
4372,2255
4373,2243
4374,2234
4375,2223
4376,2211
4377,2205
4378,2195
4379,2192
4380,2197
4381,2214
4382,2235
4383,2253
4384,2263
4385,2275
4386,2279
4387,2273
4388,2260
4389,2244
4390,2219
4391,2196
4392,2188
4393,2166
4394,2144
4395,2107
4396,2080
4397,2053
4398,2023
4399,2006
4400,1999
4401,1991
4402,1995
4403,2006
4404,2019
4405,
4406,
4407,2032
4408,2037
4409,2039
4410,2039
4411,2032
4412,2011
4413,1985
4414,1959
4415,1933
4416,1910
4417,1899
4418,1892
4419,1890
4420,1897
4421,1912
4422,1932
4423,1954
4424,1973
4425,1991
4426,2000
4427,2003
4428,2000
4429,1991
4430,1974
4431,1946
4432,1925
4433,1898
4434,1881
4435,1867
4436,1857
4437,1855
4438,1857
4439,1872
4440,1891
4441,1904
4442,1911
4443,1917
4444,1911
4445,1905
4446,1892
4447,1872
4448,1851
4449,1831
4450,1814
4451,1808
4452,1805
4453,1808
4454,1817
4455,1840
4456,1861
4457,1879
4458,1903
4459,1908
4460,1918
4461,1914
4462,1906
4463,1890
4464,1872
4465,1915
4466,1923
4467,1921
4468,1911
4469,1901
4470,1875
4471,1858
4472,1843
4473,1834
4474,1815
4475,1811
4476,1813
4477,1823
4478,1835
4479,1843
4480,1856
4481,
4482,
4483,1863
4484,1866
4485,1870
4486,1859
4487,1847
4488,1833
4489,1810
4490,1797
4491,1790
4492,1792
4493,1797
4494,1808
4495,1827
4496,1854
4497,1879
4498,1910
4499,1931
4500,1943
4501,1947
4502,1938
4503,1920
4504,1893
4505,1858
4506,1823
4507,1792
4508,1770
4509,1752
4510,1748
4511,1749
4512,1767
4513,1791
4514,1821
4515,1851
4516,1874
4517,1893
4518,1903
4519,1903
4520,1892
4521,1873
4522,1856
4523,1834
4524,1819
4525,1808
4526,1808
4527,1813
4528,1824
4529,1844
4530,1866
4531,1888
4532,1907
4533,1923
4534,1932
4535,1931
4536,1926
4537,1919
4538,1903
4539,1886
4540,1869
4541,1857
4542,1849
4543,1878
4544,1872
4545,1858
4546,1845
4547,1838
4548,1829
4549,1825
4550,1831
4551,
4552,
4553,1847
4554,1871
4555,1891
4556,1920
4557,1934
4558,1947
4559,1941
4560,1936
4561,1920
4562,1904
4563,1893
4564,1881
4565,1875
4566,1873
4567,1877
4568,1897
4569,1915
4570,1937
4571,1957
4572,1973
4573,1987
4574,1984
4575,1981
4576,1968
4577,1942
4578,1915
4579,1884
4580,1859
4581,1841
4582,1826
4583,1817
4584,1815
4585,1830
4586,1849
4587,1873
4588,1899
4589,1918
4590,1936
4591,1947
4592,1957
4593,1956
4594,1945
4595,1933
4596,1919
4597,1904
4598,1893
4599,1879
4600,1879
4601,1876
4602,1887
4603,1902
4604,1911
4605,1922
4606,1927
4607,1934
4608,1931
4609,1922
4610,1906
4611,1879
4612,1856
4613,1836
4614,1808
4615,1794
4616,1787
4617,1791
4618,1808
4619,1860
4620,1854
4621,1850
4622,1857
4623,1871
4624,1898
4625,1923
4626,1947
4627,1973
4628,1984
4629,
4630,
4631,1987
4632,1978
4633,1953
4634,1923
4635,1893
4636,1868
4637,1845
4638,1835
4639,1827
4640,1833
4641,1841
4642,1863
4643,1890
4644,1914
4645,1941
4646,1953
4647,1966
4648,1967
4649,1965
4650,1950
4651,1933
4652,1917
4653,1895
4654,1882
4655,1872
4656,1872
4657,1876
4658,1885
4659,1902
4660,1919
4661,1935
4662,1948
4663,1954
4664,1951
4665,1943
4666,1931
4667,1915
4668,1899
4669,1885
4670,1872
4671,1865
4672,1866
4673,1870
4674,1877
4675,1895
4676,1915
4677,1936
4678,1955
4679,1968
4680,1971
4681,1974
4682,1968
4683,1951
4684,1925
4685,1899
4686,1872
4687,1843
4688,1826
4689,1809
4690,1807
4691,1815
4692,1840
4693,1904
4694,1906
4695,1914
4696,1916
4697,1924
4698,1942
4699,1968
4700,1993
4701,2011
4702,2031
4703,2033
4704,2032
4705,2023
4706,2017
4707,2001
4708,1990
4709,
4710,
4711,1981
4712,1969
4713,1970
4714,1975
4715,1984
4716,2000
4717,2026
4718,2053
4719,2080
4720,2096
4721,2105
4722,2103
4723,2096
4724,2082
4725,2061
4726,2035
4727,2014
4728,1997
4729,1986
4730,1983
4731,1984
4732,1998
4733,2017
4734,2046
4735,2083
4736,2106
4737,2128
4738,2139
4739,2144
4740,2144
4741,2129
4742,2113
4743,2093
4744,2064
4745,2039
4746,2022
4747,2013
4748,2001
4749,2002
4750,2015
4751,2031
4752,2053
4753,2073
4754,2093
4755,2105
4756,2109
4757,2109
4758,2098
4759,2086
4760,2064
4761,2039
4762,2022
4763,2005
4764,2003
4765,2011
4766,2025
4767,2047
4768,2077
4769,2096
4770,2107
4771,2114
4772,1865
4773,1893
4774,1924
4775,1949
4776,1968
4777,1984
4778,1984
4779,1979
4780,1968
4781,1951
4782,1931
4783,1905
4784,
4785,
4786,1886
4787,1869
4788,1849
4789,1843
4790,1843
4791,1847
4792,1869
4793,1888
4794,1907
4795,1922
4796,1935
4797,1936
4798,1936
4799,1926
4800,1914
4801,1890
4802,1869
4803,1846
4804,1839
4805,1828
4806,1825
4807,1830
4808,1843
4809,1868
4810,1888
4811,1910
4812,1920
4813,1925
4814,1925
4815,1924
4816,1921
4817,1914
4818,1889
4819,1879
4820,1862
4821,1849
4822,1843
4823,1842
4824,1846
4825,1874
4826,1905
4827,1937
4828,1968
4829,1987
4830,2000
