,0
0,1910.6599154631913
1,1910.6599154631913
2,2112.0
3,2123.0
4,2165.0
5,2219.0
6,2283.0
7,2334.0
8,2384.0
9,2438.0
10,2468.0
11,2465.0
12,2432.0
13,2385.0
14,2330.0
15,2272.0
16,2221.0
17,2160.0
18,2126.0
19,2127.0
20,2154.0
21,2201.0
22,2267.0
23,2064.0
24,2031.0
25,1977.0
26,1923.0
27,1863.0
28,1805.0
29,1735.0
30,1686.0
31,1672.0
32,1689.0
33,1729.0
34,1774.0
35,1818.0
36,1865.0
37,1914.0
38,1966.0
39,1995.0
40,1999.0
41,1968.0
42,1931.0
43,1873.0
44,1813.0
45,1746.0
46,1681.0
47,1658.0
48,1664.0
49,1699.0
50,1743.0
51,1790.0
52,1831.0
53,1866.0
54,1904.0
55,1936.0
56,1946.0
57,1920.0
58,1868.0
59,1809.0
60,1760.0
61,1712.0
62,1653.0
63,1604.0
64,1587.0
65,1602.0
66,1635.0
67,1679.0
68,1728.0
69,1773.0
70,1812.0
71,1856.0
72,1886.0
73,1889.0
74,1719.0
75,1775.0
76,1823.0
77,1851.0
78,1852.0
79,1808.0
80,1744.0
81,1677.0
82,1614.0
83,1543.0
84,1472.0
85,1443.0
86,1451.0
87,1489.0
88,1559.0
89,1621.0
90,1689.0
91,1755.0
92,1819.0
93,1879.0
94,1891.0
95,1875.0
96,1834.0
97,1771.0
98,1705.0
99,1644.0
100,1572.0
101,1514.0
102,1488.0
103,1495.0
104,1531.0
105,1589.0
106,1643.0
107,1701.0
108,1763.0
109,1824.0
110,1862.0
111,1872.0
112,1849.0
113,1795.0
114,1742.0
115,1679.0
116,1617.0
117,1553.0
118,1518.0
119,1508.0
120,1532.0
121,1582.0
122,1637.0
123,1699.0
124,1757.0
125,1811.0
126,1871.0
127,1901.0
128,1903.0
129,1869.0
130,1815.0
131,1765.0
132,1710.0
133,1651.0
134,1591.0
135,1561.0
136,1559.0
137,1584.0
138,1629.0
139,1668.0
140,1713.0
141,1755.0
142,1795.0
143,1835.0
144,1841.0
145,1831.0
146,1793.0
147,1749.0
148,1712.0
149,1670.0
150,1616.0
151,1577.0
152,1564.0
153,1584.0
154,1621.0
155,1677.0
156,1729.0
157,1779.0
158,1824.0
159,1872.0
160,1895.0
161,1889.0
162,1862.0
163,1809.0
164,1747.0
165,1680.0
166,1607.0
167,1523.0
168,1471.0
169,1463.0
170,1485.0
171,1546.0
172,1606.0
173,1675.0
174,1740.0
175,1808.0
176,1872.0
177,1911.0
178,1919.0
179,1893.0
180,1853.0
181,1797.0
182,1740.0
183,1679.0
184,1615.0
185,1585.0
186,1597.0
187,1626.0
188,1685.0
189,1744.0
190,1802.0
191,1858.0
192,1925.0
193,1974.0
194,2001.0
195,1999.0
196,1963.0
197,1909.0
198,1854.0
199,1795.0
200,1737.0
201,1691.0
202,1680.0
203,1698.0
204,1734.0
205,1787.0
206,1838.0
207,1889.0
208,1933.0
209,1984.0
210,2017.0
211,2028.0
212,2011.0
213,1975.0
214,1929.0
215,1877.0
216,1826.0
217,1776.0
218,1744.0
219,1741.0
220,1774.0
221,1812.0
222,1872.0
223,1923.0
224,1962.0
225,2010.0
226,2045.0
227,2063.0
228,2043.0
229,1998.0
230,1941.0
231,1876.0
232,1825.0
233,1763.0
234,1711.0
235,1686.0
236,1696.0
237,1733.0
238,1779.0
239,1830.0
240,1874.0
241,1920.0
242,1963.0
243,1995.0
244,2009.0
245,1995.0
246,1954.0
247,1904.0
248,1840.0
249,1778.0
250,1712.0
251,1648.0
252,1622.0
253,1633.0
254,1672.0
255,1719.0
256,1775.0
257,1821.0
258,1872.0
259,1926.0
260,1963.0
261,1974.0
262,1962.0
263,1916.0
264,1869.0
265,1808.0
266,1745.0
267,1679.0
268,1634.0
269,1626.0
270,1648.0
271,1696.0
272,1746.0
273,1807.0
274,1867.0
275,1927.0
276,1989.0
277,2018.0
278,2014.0
279,1974.0
280,1913.0
281,1850.0
282,1781.0
283,1716.0
284,1652.0
285,1616.0
286,1619.0
287,1658.0
288,1712.0
289,1775.0
290,1831.0
291,1883.0
292,1936.0
293,1974.0
294,1985.0
295,1978.0
296,1948.0
297,1903.0
298,1856.0
299,1813.0
300,1764.0
301,1719.0
302,1712.0
303,1729.0
304,1776.0
305,1824.0
306,1877.0
307,1922.0
308,1971.0
309,2014.0
310,2045.0
311,2046.0
312,2014.0
313,1964.0
314,1893.0
315,1839.0
316,1773.0
317,1703.0
318,1667.0
319,1665.0
320,1703.0
321,1762.0
322,1836.0
323,1909.0
324,1973.0
325,2045.0
326,2112.0
327,2147.0
328,2152.0
329,2126.0
330,2081.0
331,2028.0
332,1969.0
333,1920.0
334,1861.0
335,1827.0
336,1829.0
337,1853.0
338,1904.0
339,1953.0
340,1995.0
341,2032.0
342,2085.0
343,2113.0
344,2122.0
345,2095.0
346,2046.0
347,1986.0
348,1931.0
349,1879.0
350,1815.0
351,1769.0
352,1759.0
353,1786.0
354,1844.0
355,1925.0
356,2009.0
357,2095.0
358,2173.0
359,2247.0
360,2310.0
361,2345.0
362,2350.0
363,2330.0
364,2307.0
365,2288.0
366,2274.0
367,2255.0
368,2263.0
369,2311.0
370,2387.0
371,2491.0
372,2614.0
373,2739.0
374,2863.0
375,3003.0
376,3147.0
377,3270.0
378,3370.0
379,3445.0
380,3510.0
381,3559.0
382,3626.0
383,3651.0
384,3690.0
385,3731.0
386,3815.0
387,3901.0
388,3994.0
389,4035.0
390,4009.0
391,3934.0
392,3795.0
393,3635.0
394,3437.0
395,3239.0
396,3018.0
397,2800.0
398,2598.0
399,2401.0
400,2222.0
401,2066.0
402,1966.0
403,1911.0
404,1904.0
405,1935.0
406,1973.0
407,2030.0
408,2096.0
409,2161.0
410,2212.0
411,2234.0
412,2228.0
413,2195.0
414,2160.0
415,2113.0
416,2059.0
417,2002.0
418,1965.0
419,1957.0
420,1974.0
421,2015.0
422,2076.0
423,2134.0
424,2182.0
425,2229.0
426,2269.0
427,2290.0
428,2275.0
429,2229.0
430,2176.0
431,2121.0
432,2067.0
433,2003.0
434,1940.0
435,1914.0
436,1910.0
437,1936.0
438,1974.0
439,2022.0
440,2065.0
441,2101.0
442,2142.0
443,2173.0
444,2174.0
445,2144.0
446,2096.0
447,2029.0
448,1966.0
449,1901.0
450,1839.0
451,1785.0
452,1763.0
453,1774.0
454,1799.0
455,1856.0
456,1915.0
457,1961.0
458,2016.0
459,2069.0
460,2096.0
461,2087.0
462,2046.0
463,1979.0
464,1906.0
465,1837.0
466,1767.0
467,1695.0
468,1646.0
469,1617.0
470,1638.0
471,1667.0
472,1711.0
473,1751.0
474,1787.0
475,1837.0
476,1877.0
477,1905.0
478,1904.0
479,1878.0
480,1839.0
481,1791.0
482,1738.0
483,1681.0
484,1618.0
485,1586.0
486,1583.0
487,1610.0
488,1659.0
489,1721.0
490,1777.0
491,1836.0
492,1889.0
493,1936.0
494,1946.0
495,1925.0
496,1879.0
497,1813.0
498,1746.0
499,1678.0
500,1606.0
501,1551.0
502,1518.0
503,1520.0
504,1552.0
505,1595.0
506,1649.0
507,1694.0
508,1743.0
509,1786.0
510,1815.0
511,1818.0
512,1797.0
513,1744.0
514,1695.0
515,1642.0
516,1584.0
517,1520.0
518,1482.0
519,1473.0
520,1498.0
521,1535.0
522,1598.0
523,1660.0
524,1710.0
525,1759.0
526,1809.0
527,1839.0
528,1835.0
529,1799.0
530,1747.0
531,1691.0
532,1634.0
533,1572.0
534,1510.0
535,1481.0
536,1483.0
537,1518.0
538,1573.0
539,1631.0
540,1686.0
541,1745.0
542,1805.0
543,1856.0
544,1874.0
545,1869.0
546,1825.0
547,1771.0
548,1707.0
549,1642.0
550,1558.0
551,1487.0
552,1456.0
553,1453.0
554,1483.0
555,1525.0
556,1587.0
557,1637.0
558,1687.0
559,1741.0
560,1767.0
561,1777.0
562,1762.0
563,1730.0
564,1681.0
565,1648.0
566,1605.0
567,1552.0
568,1509.0
569,1504.0
570,1520.0
571,1568.0
572,1618.0
573,1671.0
574,1719.0
575,1774.0
576,1823.0
577,1859.0
578,1856.0
579,1819.0
580,1760.0
581,1694.0
582,1628.0
583,1555.0
584,1488.0
585,1456.0
586,1458.0
587,1491.0
588,1552.0
589,1625.0
590,1689.0
591,1754.0
592,1813.0
593,1869.0
594,1886.0
595,1872.0
596,1829.0
597,1759.0
598,1694.0
599,1625.0
600,1552.0
601,1491.0
602,1472.0
603,1490.0
604,1526.0
605,1584.0
606,1645.0
607,1707.0
608,1775.0
609,1833.0
610,1872.0
611,1890.0
612,1872.0
613,1837.0
614,1783.0
615,1728.0
616,1658.0
617,1584.0
618,1533.0
619,1513.0
620,1525.0
621,1569.0
622,1618.0
623,1667.0
624,1714.0
625,1761.0
626,1808.0
627,1837.0
628,1833.0
629,1799.0
630,1749.0
631,1693.0
632,1637.0
633,1574.0
634,1503.0
635,1472.0
636,1471.0
637,1502.0
638,1552.0
639,1613.0
640,1671.0
641,1730.0
642,1795.0
643,1839.0
644,1863.0
645,1840.0
646,1795.0
647,1738.0
648,1674.0
649,1603.0
650,1521.0
651,1453.0
652,1416.0
653,1409.0
654,1431.0
655,1485.0
656,1535.0
657,1589.0
658,1645.0
659,1690.0
660,1717.0
661,1718.0
662,1687.0
663,1630.0
664,1573.0
665,1515.0
666,1466.0
667,1422.0
668,1392.0
669,1393.0
670,1420.0
671,1461.0
672,1519.0
673,1584.0
674,1626.0
675,1687.0
676,1738.0
677,1763.0
678,1747.0
679,1711.0
680,1642.0
681,1576.0
682,1498.0
683,1427.0
684,1349.0
685,1302.0
686,1293.0
687,1308.0
688,1355.0
689,1407.0
690,1457.0
691,1517.0
692,1583.0
693,1630.0
694,1653.0
695,1642.0
696,1610.0
697,1559.0
698,1495.0
699,1440.0
700,1381.0
701,1323.0
702,1296.0
703,1299.0
704,1328.0
705,1371.0
706,1415.0
707,1466.0
708,1520.0
709,1583.0
710,1621.0
711,1643.0
712,1634.0
713,1600.0
714,1558.0
715,1502.0
716,1451.0
717,1390.0
718,1344.0
719,1333.0
720,1360.0
721,1413.0
722,1475.0
723,1552.0
724,1609.0
725,1669.0
726,1716.0
727,1739.0
728,1730.0
729,1691.0
730,1634.0
731,1570.0
732,1491.0
733,1424.0
734,1345.0
735,1297.0
736,1291.0
737,1314.0
738,1366.0
739,1429.0
740,1501.0
741,1579.0
742,1657.0
743,1729.0
744,1776.0
745,1782.0
746,1757.0
747,1718.0
748,1673.0
749,1615.0
750,1550.0
751,1481.0
752,1444.0
753,1437.0
754,1457.0
755,1495.0
756,1552.0
757,1587.0
758,1643.0
759,1698.0
760,1743.0
761,1761.0
762,1757.0
763,1720.0
764,1677.0
765,1628.0
766,1584.0
767,1527.0
768,1492.0
769,1491.0
770,1517.0
771,1569.0
772,1624.0
773,1685.0
774,1734.0
775,1789.0
776,1838.0
777,1847.0
778,1826.0
779,1772.0
780,1696.0
781,1616.0
782,1548.0
783,1473.0
784,1413.0
785,1382.0
786,1393.0
787,1437.0
788,1502.0
789,1584.0
790,1650.0
791,1714.0
792,1776.0
793,1830.0
794,1850.0
795,1840.0
796,1793.0
797,1741.0
798,1680.0
799,1625.0
800,1555.0
801,1489.0
802,1462.0
803,1469.0
804,1504.0
805,1557.0
806,1611.0
807,1664.0
808,1722.0
809,1775.0
810,1811.0
811,1810.0
812,1796.0
813,1753.0
814,1695.0
815,1639.0
816,1575.0
817,1510.0
818,1459.0
819,1457.0
820,1471.0
821,1510.0
822,1567.0
823,1617.0
824,1667.0
825,1719.0
826,1762.0
827,1786.0
828,1776.0
829,1744.0
830,1703.0
831,1657.0
832,1609.0
833,1562.0
834,1509.0
835,1488.0
836,1501.0
837,1546.0
838,1605.0
839,1665.0
840,1715.0
841,1763.0
842,1808.0
843,1837.0
844,1840.0
845,1808.0
846,1755.0
847,1690.0
848,1616.0
849,1552.0
850,1476.0
851,1409.0
852,1370.0
853,1375.0
854,1402.0
855,1455.0
856,1504.0
857,1568.0
858,1627.0
859,1686.0
860,1743.0
861,1759.0
862,1744.0
863,1699.0
864,1647.0
865,1585.0
866,1517.0
867,1442.0
868,1394.0
869,1371.0
870,1386.0
871,1415.0
872,1471.0
873,1525.0
874,1588.0
875,1649.0
876,1712.0
877,1754.0
878,1769.0
879,1755.0
880,1719.0
881,1677.0
882,1625.0
883,1570.0
884,1505.0
885,1468.0
886,1463.0
887,1488.0
888,1535.0
889,1584.0
890,1629.0
891,1667.0
892,1713.0
893,1745.0
894,1765.0
895,1744.0
896,1698.0
897,1639.0
898,1583.0
899,1520.0
900,1459.0
901,1404.0
902,1375.0
903,1382.0
904,1409.0
905,1451.0
906,1495.0
907,1553.0
908,1609.0
909,1668.0
910,1711.0
911,1722.0
912,1701.0
913,1662.0
914,1616.0
915,1571.0
916,1515.0
917,1454.0
918,1406.0
919,1398.0
920,1427.0
921,1481.0
922,1552.0
923,1621.0
924,1682.0
925,1743.0
926,1802.0
927,1831.0
928,1825.0
929,1783.0
930,1726.0
931,1661.0
932,1589.0
933,1509.0
934,1435.0
935,1392.0
936,1381.0
937,1406.0
938,1443.0
939,1503.0
940,1560.0
941,1616.0
942,1678.0
943,1732.0
944,1753.0
945,1748.0
946,1723.0
947,1680.0
948,1637.0
949,1591.0
950,1533.0
951,1475.0
952,1456.0
953,1473.0
954,1515.0
955,1579.0
956,1639.0
957,1699.0
958,1749.0
959,1806.0
960,1843.0
961,1856.0
962,1833.0
963,1788.0
964,1730.0
965,1671.0
966,1607.0
967,1552.0
968,1490.0
969,1481.0
970,1495.0
971,1548.0
972,1607.0
973,1669.0
974,1717.0
975,1773.0
976,1811.0
977,1838.0
978,1823.0
979,1784.0
980,1724.0
981,1663.0
982,1600.0
983,1547.0
984,1485.0
985,1457.0
986,1466.0
987,1513.0
988,1583.0
989,1642.0
990,1707.0
991,1766.0
992,1817.0
993,1863.0
994,1883.0
995,1875.0
996,1840.0
997,1791.0
998,1734.0
999,1676.0
1000,1619.0
1001,1563.0
1002,1549.0
1003,1567.0
1004,1613.0
1005,1676.0
1006,1738.0
1007,1795.0
1008,1854.0
1009,1910.0
1010,1946.0
1011,1962.0
1012,1940.0
1013,1906.0
1014,1857.0
1015,1808.0
1016,1755.0
1017,1695.0
1018,1653.0
1019,1643.0
1020,1666.0
1021,1702.0
1022,1751.0
1023,1806.0
1024,1847.0
1025,1887.0
1026,1931.0
1027,1942.0
1028,1933.0
1029,1903.0
1030,1855.0
1031,1806.0
1032,1750.0
1033,1695.0
1034,1645.0
1035,1609.0
1036,1610.0
1037,1633.0
1038,1680.0
1039,1734.0
1040,1782.0
1041,1834.0
1042,1884.0
1043,1935.0
1044,1963.0
1045,1961.0
1046,1935.0
1047,1894.0
1048,1851.0
1049,1797.0
1050,1744.0
1051,1696.0
1052,1681.0
1053,1703.0
1054,1744.0
1055,1805.0
1056,1866.0
1057,1920.0
1058,1968.0
1059,2017.0
1060,2057.0
1061,2060.0
1062,2032.0
1063,1984.0
1064,1923.0
1065,1874.0
1066,1827.0
1067,1774.0
1068,1743.0
1069,1739.0
1070,1766.0
1071,1822.0
1072,1885.0
1073,1952.0
1074,2011.0
1075,2081.0
1076,2138.0
1077,2166.0
1078,2165.0
1079,2135.0
1080,2080.0
1081,2015.0
1082,1952.0
1083,1893.0
1084,1840.0
1085,1808.0
1086,1817.0
1087,1862.0
1088,1925.0
1089,1998.0
1090,2077.0
1091,2145.0
1092,2210.0
1093,2272.0
1094,2300.0
1095,2298.0
1096,2271.0
1097,2223.0
1098,2169.0
1099,2113.0
1100,2047.0
1101,1985.0
1102,1956.0
1103,1957.0
1104,1986.0
1105,2032.0
1106,2086.0
1107,2136.0
1108,2187.0
1109,2249.0
1110,2298.0
1111,2321.0
1112,2318.0
1113,2288.0
1114,2230.0
1115,2174.0
1116,2115.0
1117,2054.0
1118,2007.0
1119,1995.0
1120,2010.0
1121,2057.0
1122,2100.0
1123,2155.0
1124,2195.0
1125,2241.0
1126,2278.0
1127,2288.0
1128,2279.0
1129,2241.0
1130,2182.0
1131,2123.0
1132,2067.0
1133,2012.0
1134,1955.0
1135,1930.0
1136,1933.0
1137,1971.0
1138,2039.0
1139,2113.0
1140,2183.0
1141,2242.0
1142,2303.0
1143,2351.0
1144,2363.0
1145,2352.0
1146,2309.0
1147,2246.0
1148,2178.0
1149,2113.0
1150,2032.0
1151,1964.0
1152,1928.0
1153,1931.0
1154,1959.0
1155,2000.0
1156,2059.0
1157,2106.0
1158,2150.0
1159,2197.0
1160,2230.0
1161,2240.0
1162,2223.0
1163,2182.0
1164,2135.0
1165,2091.0
1166,2032.0
1167,1983.0
1168,1942.0
1169,1934.0
1170,1952.0
1171,1982.0
1172,2019.0
1173,2067.0
1174,2110.0
1175,2157.0
1176,2199.0
1177,2235.0
1178,2238.0
1179,2224.0
1180,2187.0
1181,2143.0
1182,2096.0
1183,2042.0
1184,1987.0
1185,1953.0
1186,1951.0
1187,1981.0
1188,2026.0
1189,2081.0
1190,2128.0
1191,2169.0
1192,2217.0
1193,2253.0
1194,2262.0
1195,2252.0
1196,2217.0
1197,2175.0
1198,2128.0
1199,2083.0
1200,2029.0
1201,1983.0
1202,1968.0
1203,1993.0
1204,2043.0
1205,2113.0
1206,2179.0
1207,2238.0
1208,2288.0
1209,2335.0
1210,2372.0
1211,2381.0
1212,2353.0
1213,2304.0
1214,2247.0
1215,2191.0
1216,2128.0
1217,2064.0
1218,2020.0
1219,2013.0
1220,2035.0
1221,2086.0
1222,2138.0
1223,2197.0
1224,2257.0
1225,2319.0
1226,2368.0
1227,2411.0
1228,2429.0
1229,2415.0
1230,2385.0
1231,2349.0
1232,2309.0
1233,2260.0
1234,2213.0
1235,2166.0
1236,2162.0
1237,2180.0
1238,2211.0
1239,2256.0
1240,2299.0
1241,2345.0
1242,2395.0
1243,2448.0
1244,2475.0
1245,2471.0
1246,2448.0
1247,2405.0
1248,2366.0
1249,2330.0
1250,2287.0
1251,2253.0
1252,2256.0
1253,2285.0
1254,2337.0
1255,2416.0
1256,2512.0
1257,2614.0
1258,2717.0
1259,2832.0
1260,2945.0
1261,3034.0
1262,3109.0
1263,3166.0
1264,3215.0
1265,3264.0
1266,3318.0
1267,3367.0
1268,3440.0
1269,3579.0
1270,3796.0
1271,4095.0
1272,4095.0
1273,4095.0
1274,4095.0
1275,4095.0
1276,4095.0
1277,4095.0
1278,4095.0
1279,4095.0
1280,4095.0
1281,4095.0
1282,4095.0
1283,4095.0
1284,4095.0
1285,4095.0
1286,4095.0
1287,4095.0
1288,4095.0
1289,4095.0
1290,3931.0
1291,3722.0
1292,3519.0
1293,3358.0
1294,3200.0
1295,3041.0
1296,2895.0
1297,2766.0
1298,2657.0
1299,2576.0
1300,2502.0
1301,2467.0
1302,2481.0
1303,2544.0
1304,2649.0
1305,2769.0
1306,2893.0
1307,3005.0
1308,3115.0
1309,3211.0
1310,3278.0
1311,3311.0
1312,3290.0
1313,3247.0
1314,3186.0
1315,3132.0
1316,3066.0
1317,3000.0
1318,2947.0
1319,2933.0
1320,2949.0
1321,2985.0
1322,3035.0
1323,3088.0
1324,3131.0
1325,3177.0
1326,3213.0
1327,3235.0
1328,3225.0
1329,3186.0
1330,3127.0
1331,3059.0
1332,2999.0
1333,2942.0
1334,2879.0
1335,2843.0
1336,2842.0
1337,2877.0
1338,2928.0
1339,2989.0
1340,3051.0
1341,3111.0
1342,3175.0
1343,3233.0
1344,3262.0
1345,3251.0
1346,3213.0
1347,3152.0
1348,3090.0
1349,3023.0
1350,2942.0
1351,2818.0
1352,2759.0
1353,2692.0
1354,2624.0
1355,2580.0
1356,2559.0
1357,2576.0
1358,2609.0
1359,2651.0
1360,2692.0
1361,2735.0
1362,2777.0
1363,2823.0
1364,2838.0
1365,2835.0
1366,2805.0
1367,2760.0
1368,2708.0
1369,2665.0
1370,2611.0
1371,2559.0
1372,2543.0
1373,2555.0
1374,2591.0
1375,2638.0
1376,2685.0
1377,2729.0
1378,2759.0
1379,2800.0
1380,2823.0
1381,2826.0
1382,2788.0
1383,2733.0
1384,2665.0
1385,2606.0
1386,2543.0
1387,2475.0
1388,2439.0
1389,2431.0
1390,2450.0
1391,2497.0
1392,2549.0
1393,2606.0
1394,2640.0
1395,2682.0
1396,2723.0
1397,2751.0
1398,2744.0
1399,2708.0
1400,2667.0
1401,2614.0
1402,2554.0
1403,2497.0
1404,2445.0
1405,2408.0
1406,2405.0
1407,2439.0
1408,2483.0
1409,2535.0
1410,2587.0
1411,2627.0
1412,2664.0
1413,2693.0
1414,2692.0
1415,2669.0
1416,2615.0
1417,2534.0
1418,2471.0
1419,2411.0
1420,2334.0
1421,2285.0
1422,2262.0
1423,2276.0
1424,2312.0
1425,2363.0
1426,2416.0
1427,2463.0
1428,2511.0
1429,2551.0
1430,2591.0
1431,2589.0
1432,2558.0
1433,2508.0
1434,2446.0
1435,2384.0
1436,2331.0
1437,2263.0
1438,2209.0
1439,2182.0
1440,2192.0
1441,2224.0
1442,2274.0
1443,2323.0
1444,2366.0
1445,2413.0
1446,2449.0
1447,2475.0
1448,2480.0
1449,2451.0
1450,2400.0
1451,2335.0
1452,2259.0
1453,2181.0
1454,2102.0
1455,2034.0
1456,2003.0
1457,2006.0
1458,2036.0
1459,2091.0
1460,2143.0
1461,2193.0
1462,2247.0
1463,2288.0
1464,2307.0
1465,2290.0
1466,2250.0
1467,2185.0
1468,2115.0
1469,2042.0
1470,1970.0
1471,1900.0
1472,1851.0
1473,1847.0
1474,1866.0
1475,1904.0
1476,1941.0
1477,1973.0
1478,2009.0
1479,2028.0
1480,2047.0
1481,2031.0
1482,1990.0
1483,1922.0
1484,1849.0
1485,1775.0
1486,1706.0
1487,1629.0
1488,1570.0
1489,1551.0
1490,1557.0
1491,1593.0
1492,1648.0
1493,1712.0
1494,1767.0
1495,1821.0
1496,1875.0
1497,1917.0
1498,1918.0
1499,1889.0
1500,1844.0
1501,1789.0
1502,1721.0
1503,1666.0
1504,1594.0
1505,1534.0
1506,1519.0
1507,1532.0
1508,1574.0
1509,1621.0
1510,1671.0
1511,1714.0
1512,1767.0
1513,1794.0
1514,1802.0
1515,1777.0
1516,1718.0
1517,1642.0
1518,1578.0
1519,1503.0
1520,1435.0
1521,1381.0
1522,1358.0
1523,1373.0
1524,1412.0
1525,1483.0
1526,1565.0
1527,1636.0
1528,1713.0
1529,1783.0
1530,1831.0
1531,1840.0
1532,1804.0
1533,1747.0
1534,1674.0
1535,1591.0
1536,1516.0
1537,1440.0
1538,1392.0
1539,1375.0
1540,1397.0
1541,1449.0
1542,1519.0
1543,1612.0
1544,1685.0
1545,1757.0
1546,1818.0
1547,1853.0
1548,1857.0
1549,1829.0
1550,1781.0
1551,1721.0
1552,1663.0
1553,1605.0
1554,1545.0
1555,1489.0
1556,1489.0
1557,1517.0
1558,1573.0
1559,1638.0
1560,1695.0
1561,1748.0
1562,1795.0
1563,1847.0
1564,1861.0
1565,1841.0
1566,1798.0
1567,1736.0
1568,1667.0
1569,1607.0
1570,1545.0
1571,1488.0
1572,1458.0
1573,1476.0
1574,1516.0
1575,1586.0
1576,1648.0
1577,1712.0
1578,1766.0
1579,1826.0
1580,1861.0
1581,1877.0
1582,1850.0
1583,1817.0
1584,1772.0
1585,1713.0
1586,1666.0
1587,1610.0
1588,1570.0
1589,1563.0
1590,1589.0
1591,1627.0
1592,1680.0
1593,1734.0
1594,1776.0
1595,1827.0
1596,1870.0
1597,1898.0
1598,1893.0
1599,1856.0
1600,1801.0
1601,1734.0
1602,1679.0
1603,1617.0
1604,1574.0
1605,1552.0
1606,1566.0
1607,1604.0
1608,1683.0
1609,1763.0
1610,1834.0
1611,1891.0
1612,1948.0
1613,1987.0
1614,2005.0
1615,1991.0
1616,1956.0
1617,1890.0
1618,1823.0
1619,1755.0
1620,1680.0
1621,1617.0
1622,1574.0
1623,1577.0
1624,1602.0
1625,1648.0
1626,1701.0
1627,1767.0
1628,1826.0
1629,1877.0
1630,1922.0
1631,1933.0
1632,1919.0
1633,1874.0
1634,1825.0
1635,1775.0
1636,1728.0
1637,1674.0
1638,1635.0
1639,1621.0
1640,1651.0
1641,1701.0
1642,1776.0
1643,1842.0
1644,1915.0
1645,1982.0
1646,2034.0
1647,2074.0
1648,2071.0
1649,2032.0
1650,1968.0
1651,1902.0
1652,1827.0
1653,1761.0
1654,1687.0
1655,1642.0
1656,1623.0
1657,1648.0
1658,1685.0
1659,1744.0
1660,1799.0
1661,1857.0
1662,1917.0
1663,1968.0
1664,1995.0
1665,1995.0
1666,1962.0
1667,1903.0
1668,1854.0
1669,1778.0
1670,1710.0
1671,1639.0
1672,1606.0
1673,1604.0
1674,1623.0
1675,1671.0
1676,1728.0
1677,1782.0
1678,1847.0
1679,1914.0
1680,1969.0
1681,2000.0
1682,2000.0
1683,1975.0
1684,1930.0
1685,1872.0
1686,1811.0
1687,1744.0
1688,1687.0
1689,1661.0
1690,1667.0
1691,1706.0
1692,1767.0
1693,1828.0
1694,1883.0
1695,1933.0
1696,1979.0
1697,2000.0
1698,2014.0
1699,1996.0
1700,1947.0
1701,1893.0
1702,1829.0
1703,1760.0
1704,1685.0
1705,1643.0
1706,1638.0
1707,1659.0
1708,1719.0
1709,1782.0
1710,1856.0
1711,1918.0
1712,1982.0
1713,2032.0
1714,2063.0
1715,2047.0
1716,2014.0
1717,1952.0
1718,1900.0
1719,1834.0
1720,1774.0
1721,1711.0
1722,1677.0
1723,1681.0
1724,1712.0
1725,1773.0
1726,1827.0
1727,1872.0
1728,1939.0
1729,1995.0
1730,2032.0
1731,2053.0
1732,2032.0
1733,1990.0
1734,1937.0
1735,1879.0
1736,1834.0
1737,1771.0
1738,1729.0
1739,1709.0
1740,1729.0
1741,1774.0
1742,1834.0
1743,1893.0
1744,1946.0
1745,2005.0
1746,2063.0
1747,2095.0
1748,2096.0
1749,2064.0
1750,2006.0
1751,1942.0
1752,1885.0
1753,1827.0
1754,1773.0
1755,1735.0
1756,1738.0
1757,1767.0
1758,1809.0
1759,1859.0
1760,1903.0
1761,1939.0
1762,1983.0
1763,2020.0
1764,2039.0
1765,2035.0
1766,2002.0
1767,1956.0
1768,1911.0
1769,1870.0
1770,1825.0
1771,1779.0
1772,1761.0
1773,1776.0
1774,1819.0
1775,1868.0
1776,1929.0
1777,1979.0
1778,2035.0
1779,2095.0
1780,2134.0
1781,2151.0
1782,2137.0
1783,2099.0
1784,2032.0
1785,1968.0
1786,1904.0
1787,1840.0
1788,1780.0
1789,1759.0
1790,1776.0
1791,1823.0
1792,1875.0
1793,1939.0
1794,1994.0
1795,2035.0
1796,2077.0
1797,2096.0
1798,2095.0
1799,2059.0
1800,2000.0
1801,1948.0
1802,1885.0
1803,1826.0
1804,1775.0
1805,1733.0
1806,1731.0
1807,1757.0
1808,1815.0
1809,1875.0
1810,1940.0
1811,1999.0
1812,2077.0
1813,2125.0
1814,2160.0
1815,2160.0
1816,2137.0
1817,2096.0
1818,2035.0
1819,1983.0
1820,1923.0
1821,1863.0
1822,1822.0
1823,1818.0
1824,1834.0
1825,1859.0
1826,1900.0
1827,1937.0
1828,1981.0
1829,2029.0
1830,2071.0
1831,2088.0
1832,2071.0
1833,2030.0
1834,1984.0
1835,1936.0
1836,1891.0
1837,1843.0
1838,1791.0
1839,1776.0
1840,1793.0
1841,1840.0
1842,1909.0
1843,1979.0
1844,2038.0
1845,2111.0
1846,2176.0
1847,2224.0
1848,2255.0
1849,2245.0
1850,2209.0
1851,2162.0
1852,2105.0
1853,2038.0
1854,1973.0
1855,1925.0
1856,1914.0
1857,1936.0
1858,1989.0
1859,2064.0
1860,2130.0
1861,2201.0
1862,2257.0
1863,2318.0
1864,2346.0
1865,2341.0
1866,2300.0
1867,2246.0
1868,2179.0
1869,2118.0
1870,2055.0
1871,1996.0
1872,1968.0
1873,1982.0
1874,2013.0
1875,2071.0
1876,2128.0
1877,2177.0
1878,2223.0
1879,2267.0
1880,2293.0
1881,2297.0
1882,2287.0
1883,2233.0
1884,2169.0
1885,2107.0
1886,2037.0
1887,1968.0
1888,1909.0
1889,1900.0
1890,1922.0
1891,1975.0
1892,2054.0
1893,2113.0
1894,2176.0
1895,2233.0
1896,2287.0
1897,2315.0
1898,2314.0
1899,2277.0
1900,2215.0
1901,2147.0
1902,2075.0
1903,2009.0
1904,1936.0
1905,1889.0
1906,1884.0
1907,1910.0
1908,1949.0
1909,2003.0
1910,2064.0
1911,2109.0
1912,2158.0
1913,2195.0
1914,2209.0
1915,2189.0
1916,2135.0
1917,2064.0
1918,1998.0
1919,1931.0
1920,1866.0
1921,1808.0
1922,1781.0
1923,1798.0
1924,1843.0
1925,1904.0
1926,1972.0
1927,2041.0
1928,2110.0
1929,2169.0
1930,2217.0
1931,2230.0
1932,2211.0
1933,2163.0
1934,2097.0
1935,2026.0
1936,1963.0
1937,1892.0
1938,1829.0
1939,1807.0
1940,1824.0
1941,1865.0
1942,1920.0
1943,1986.0
1944,2039.0
1945,2099.0
1946,2162.0
1947,2213.0
1948,2223.0
1949,2210.0
1950,2175.0
1951,2122.0
1952,2085.0
1953,2016.0
1954,1951.0
1955,1907.0
1956,1895.0
1957,1917.0
1958,1955.0
1959,2002.0
1960,2057.0
1961,2096.0
1962,2141.0
1963,2187.0
1964,2199.0
1965,2187.0
1966,2149.0
1967,2096.0
1968,2029.0
1969,1978.0
1970,1923.0
1971,1869.0
1972,1839.0
1973,1838.0
1974,1865.0
1975,1913.0
1976,1979.0
1977,2041.0
1978,2109.0
1979,2176.0
1980,2238.0
1981,2271.0
1982,2275.0
1983,2245.0
1984,2194.0
1985,2139.0
1986,2081.0
1987,2019.0
1988,1963.0
1989,1933.0
1990,1947.0
1991,1971.0
1992,2027.0
1993,2063.0
1994,2106.0
1995,2139.0
1996,2185.0
1997,2214.0
1998,2204.0
1999,2169.0
2000,2114.0
2001,2054.0
2002,1999.0
2003,1940.0
2004,1888.0
2005,1855.0
2006,1861.0
2007,1903.0
2008,1969.0
2009,2055.0
2010,2135.0
2011,2218.0
2012,2303.0
2013,2378.0
2014,2425.0
2015,2450.0
2016,2451.0
2017,2438.0
2018,2422.0
2019,2410.0
2020,2395.0
2021,2385.0
2022,2407.0
2023,2464.0
2024,2559.0
2025,2687.0
2026,2832.0
2027,2993.0
2028,3167.0
2029,3356.0
2030,3559.0
2031,3767.0
2032,3946.0
2033,4090.0
2034,4095.0
2035,4095.0
2036,4095.0
2037,4095.0
2038,4095.0
2039,4095.0
2040,4095.0
2041,4095.0
2042,4095.0
2043,4095.0
2044,4095.0
2045,4095.0
2046,3998.0
2047,3787.0
2048,3565.0
2049,3352.0
2050,3141.0
2051,2941.0
2052,2758.0
2053,2586.0
2054,2421.0
2055,2288.0
2056,2207.0
2057,2177.0
2058,2186.0
2059,2222.0
2060,2274.0
2061,2327.0
2062,2404.0
2063,2475.0
2064,2516.0
2065,2538.0
2066,2532.0
2067,2503.0
2068,2464.0
2069,2427.0
2070,2380.0
2071,2327.0
2072,2303.0
2073,2295.0
2074,2320.0
2075,2365.0
2076,2403.0
2077,2433.0
2078,2467.0
2079,2509.0
2080,2547.0
2081,2579.0
2082,2579.0
2083,2553.0
2084,2529.0
2085,2497.0
2086,2463.0
2087,2413.0
2088,2352.0
2089,2321.0
2090,2322.0
2091,2352.0
2092,2396.0
2093,2445.0
2094,2493.0
2095,2541.0
2096,2593.0
2097,2619.0
2098,2608.0
2099,2575.0
2100,2512.0
2101,2443.0
2102,2382.0
2103,2320.0
2104,2261.0
2105,2218.0
2106,2197.0
2107,2215.0
2108,2251.0
2109,2288.0
2110,2333.0
2111,2368.0
2112,2414.0
2113,2455.0
2114,2481.0
2115,2487.0
2116,2471.0
2117,2436.0
2118,2384.0
2119,2331.0
2120,2268.0
2121,2196.0
2122,2153.0
2123,2139.0
2124,2159.0
2125,2199.0
2126,2245.0
2127,2303.0
2128,2350.0
2129,2405.0
2130,2448.0
2131,2466.0
2132,2453.0
2133,2413.0
2134,2351.0
2135,2286.0
2136,2219.0
2137,2145.0
2138,2079.0
2139,2043.0
2140,2045.0
2141,2079.0
2142,2122.0
2143,2177.0
2144,2230.0
2145,2287.0
2146,2342.0
2147,2384.0
2148,2395.0
2149,2374.0
2150,2321.0
2151,2253.0
2152,2176.0
2153,2094.0
2154,2000.0
2155,1936.0
2156,1904.0
2157,1918.0
2158,1951.0
2159,2000.0
2160,2063.0
2161,2119.0
2162,2179.0
2163,2240.0
2164,2275.0
2165,2288.0
2166,2258.0
2167,2223.0
2168,2163.0
2169,2106.0
2170,2035.0
2171,1968.0
2172,1930.0
2173,1927.0
2174,1954.0
2175,2003.0
2176,2063.0
2177,2112.0
2178,2160.0
2179,2212.0
2180,2253.0
2181,2272.0
2182,2260.0
2183,2227.0
2184,2171.0
2185,2112.0
2186,2038.0
2187,1974.0
2188,1903.0
2189,1867.0
2190,1861.0
2191,1879.0
2192,1921.0
2193,1971.0
2194,2015.0
2195,2069.0
2196,2125.0
2197,2166.0
2198,2190.0
2199,2185.0
2200,2158.0
2201,2111.0
2202,2058.0
2203,1999.0
2204,1931.0
2205,1884.0
2206,1867.0
2207,1887.0
2208,1918.0
2209,1968.0
2210,2021.0
2211,2077.0
2212,2133.0
2213,2189.0
2214,2223.0
2215,2226.0
2216,2198.0
2217,2151.0
2218,2096.0
2219,2037.0
2220,1971.0
2221,1909.0
2222,1873.0
2223,1872.0
2224,1900.0
2225,1946.0
2226,2000.0
2227,2062.0
2228,2101.0
2229,2144.0
2230,2178.0
2231,2189.0
2232,2167.0
2233,2123.0
2234,2065.0
2235,2005.0
2236,1953.0
2237,1895.0
2238,1855.0
2239,1840.0
2240,1862.0
2241,1906.0
2242,1964.0
2243,2024.0
2244,2091.0
2245,2144.0
2246,2194.0
2247,2234.0
2248,2243.0
2249,2224.0
2250,2190.0
2251,2137.0
2252,2093.0
2253,2033.0
2254,1972.0
2255,1919.0
2256,1904.0
2257,1913.0
2258,1946.0
2259,1982.0
2260,2023.0
2261,2067.0
2262,2119.0
2263,2166.0
2264,2193.0
2265,2191.0
2266,2160.0
2267,2105.0
2268,2047.0
2269,1997.0
2270,1941.0
2271,1879.0
2272,1861.0
2273,1870.0
2274,1906.0
2275,1968.0
2276,2034.0
2277,2100.0
2278,2154.0
2279,2207.0
2280,2245.0
2281,2259.0
2282,2235.0
2283,2185.0
2284,2112.0
2285,2039.0
2286,1975.0
2287,1909.0
2288,1854.0
2289,1825.0
2290,1830.0
2291,1872.0
2292,1925.0
2293,1973.0
2294,2019.0
2295,2067.0
2296,2108.0
2297,2138.0
2298,2145.0
2299,2124.0
2300,2071.0
2301,2005.0
2302,1943.0
2303,1873.0
2304,1801.0
2305,1744.0
2306,1723.0
2307,1731.0
2308,1762.0
2309,1806.0
2310,1852.0
2311,1897.0
2312,1939.0
2313,1986.0
2314,2031.0
2315,2031.0
2316,2007.0
2317,1970.0
2318,1920.0
2319,1871.0
2320,1805.0
2321,1742.0
2322,1701.0
2323,1689.0
2324,1713.0
2325,1750.0
2326,1799.0
2327,1840.0
2328,1878.0
2329,1917.0
2330,1946.0
2331,1953.0
2332,1934.0
2333,1883.0
2334,1814.0
2335,1747.0
2336,1691.0
2337,1621.0
2338,1562.0
2339,1529.0
2340,1525.0
2341,1565.0
2342,1614.0
2343,1665.0
2344,1726.0
2345,1775.0
2346,1839.0
2347,1888.0
2348,1914.0
2349,1905.0
2350,1870.0
2351,1825.0
2352,1773.0
2353,1713.0
2354,1646.0
2355,1584.0
2356,1565.0
2357,1569.0
2358,1602.0
2359,1648.0
2360,1692.0
2361,1731.0
2362,1772.0
2363,1809.0
2364,1836.0
2365,1827.0
2366,1808.0
2367,1771.0
2368,1732.0
2369,1683.0
2370,1635.0
2371,1578.0
2372,1535.0
2373,1535.0
2374,1562.0
2375,1609.0
2376,1666.0
2377,1733.0
2378,1790.0
2379,1849.0
2380,1886.0
2381,1904.0
2382,1888.0
2383,1842.0
2384,1785.0
2385,1715.0
2386,1658.0
2387,1589.0
2388,1519.0
2389,1489.0
2390,1495.0
2391,1533.0
2392,1587.0
2393,1642.0
2394,1697.0
2395,1758.0
2396,1826.0
2397,1881.0
2398,1903.0
2399,1891.0
2400,1851.0
2401,1805.0
2402,1751.0
2403,1698.0
2404,1635.0
2405,1598.0
2406,1589.0
2407,1615.0
2408,1658.0
2409,1714.0
2410,1769.0
2411,1818.0
2412,1869.0
2413,1917.0
2414,1938.0
2415,1936.0
2416,1907.0
2417,1870.0
2418,1824.0
2419,1775.0
2420,1713.0
2421,1661.0
2422,1631.0
2423,1638.0
2424,1676.0
2425,1728.0
2426,1796.0
2427,1855.0
2428,1904.0
2429,1953.0
2430,1994.0
2431,2000.0
2432,1979.0
2433,1925.0
2434,1862.0
2435,1797.0
2436,1728.0
2437,1663.0
2438,1600.0
2439,1574.0
2440,1583.0
2441,1622.0
2442,1682.0
2443,1751.0
2444,1824.0
2445,1889.0
2446,1951.0
2447,1994.0
2448,2002.0
2449,1984.0
2450,1931.0
2451,1877.0
2452,1819.0
2453,1762.0
2454,1696.0
2455,1645.0
2456,1629.0
2457,1648.0
2458,1687.0
2459,1734.0
2460,1777.0
2461,1826.0
2462,1872.0
2463,1915.0
2464,1937.0
2465,1926.0
2466,1903.0
2467,1855.0
2468,1805.0
2469,1751.0
2470,1706.0
2471,1648.0
2472,1616.0
2473,1617.0
2474,1648.0
2475,1697.0
2476,1745.0
2477,1796.0
2478,1840.0
2479,1891.0
2480,1935.0
2481,1959.0
2482,1956.0
2483,1919.0
2484,1875.0
2485,1824.0
2486,1789.0
2487,1747.0
2488,1714.0
2489,1710.0
2490,1725.0
2491,1769.0
2492,1819.0
2493,1872.0
2494,1918.0
2495,1953.0
2496,2000.0
2497,2019.0
2498,2011.0
2499,1982.0
2500,1924.0
2501,1861.0
2502,1793.0
2503,1732.0
2504,1663.0
2505,1611.0
2506,1593.0
2507,1620.0
2508,1675.0
2509,1736.0
2510,1805.0
2511,1862.0
2512,1921.0
2513,1983.0
2514,2015.0
2515,2016.0
2516,1984.0
2517,1925.0
2518,1863.0
2519,1799.0
2520,1739.0
2521,1666.0
2522,1625.0
2523,1616.0
2524,1641.0
2525,1698.0
2526,1751.0
2527,1809.0
2528,1869.0
2529,1929.0
2530,1980.0
2531,2006.0
2532,1997.0
2533,1959.0
2534,1903.0
2535,1830.0
2536,1766.0
2537,1691.0
2538,1626.0
2539,1597.0
2540,1601.0
2541,1642.0
2542,1697.0
2543,1758.0
2544,1817.0
2545,1872.0
2546,1936.0
2547,1979.0
2548,1999.0
2549,1977.0
2550,1929.0
2551,1868.0
2552,1802.0
2553,1737.0
2554,1665.0
2555,1616.0
2556,1600.0
2557,1616.0
2558,1667.0
2559,1731.0
2560,1799.0
2561,1872.0
2562,1938.0
2563,2003.0
2564,2046.0
2565,2055.0
2566,2021.0
2567,1968.0
2568,1904.0
2569,1840.0
2570,1775.0
2571,1698.0
2572,1648.0
2573,1642.0
2574,1659.0
2575,1698.0
2576,1748.0
2577,1804.0
2578,1856.0
2579,1914.0
2580,1967.0
2581,1989.0
2582,1983.0
2583,1952.0
2584,1904.0
2585,1859.0
2586,1821.0
2587,1770.0
2588,1716.0
2589,1692.0
2590,1708.0
2591,1743.0
2592,1794.0
2593,1856.0
2594,1919.0
2595,1973.0
2596,2033.0
2597,2087.0
2598,2106.0
2599,2085.0
2600,2032.0
2601,1972.0
2602,1915.0
2603,1845.0
2604,1768.0
2605,1709.0
2606,1678.0
2607,1686.0
2608,1715.0
2609,1763.0
2610,1808.0
2611,1846.0
2612,1891.0
2613,1935.0
2614,1958.0
2615,1953.0
2616,1921.0
2617,1872.0
2618,1826.0
2619,1783.0
2620,1739.0
2621,1699.0
2622,1677.0
2623,1694.0
2624,1729.0
2625,1789.0
2626,1851.0
2627,1909.0
2628,1956.0
2629,2004.0
2630,2038.0
2631,2054.0
2632,2003.0
2633,1959.0
2634,1911.0
2635,1866.0
2636,1808.0
2637,1759.0
2638,1731.0
2639,1742.0
2640,1779.0
2641,1819.0
2642,1867.0
2643,1904.0
2644,1947.0
2645,1987.0
2646,2003.0
2647,2001.0
2648,1969.0
2649,1921.0
2650,1857.0
2651,1793.0
2652,1727.0
2653,1655.0
2654,1615.0
2655,1609.0
2656,1619.0
2657,1669.0
2658,1727.0
2659,1783.0
2660,1842.0
2661,1904.0
2662,1962.0
2663,1986.0
2664,1985.0
2665,1956.0
2666,1905.0
2667,1844.0
2668,1779.0
2669,1702.0
2670,1631.0
2671,1591.0
2672,1586.0
2673,1614.0
2674,1670.0
2675,1737.0
2676,1808.0
2677,1886.0
2678,1953.0
2679,2016.0
2680,2047.0
2681,2059.0
2682,2027.0
2683,1982.0
2684,1931.0
2685,1872.0
2686,1806.0
2687,1750.0
2688,1733.0
2689,1749.0
2690,1797.0
2691,1853.0
2692,1909.0
2693,1959.0
2694,2001.0
2695,2053.0
2696,2078.0
2697,2071.0
2698,2032.0
2699,1973.0
2700,1920.0
2701,1856.0
2702,1803.0
2703,1743.0
2704,1710.0
2705,1715.0
2706,1744.0
2707,1801.0
2708,1856.0
2709,1920.0
2710,1967.0
2711,2014.0
2712,2064.0
2713,2087.0
2714,2073.0
2715,2037.0
2716,1989.0
2717,1934.0
2718,1881.0
2719,1835.0
2720,1791.0
2721,1776.0
2722,1799.0
2723,1847.0
2724,1904.0
2725,1973.0
2726,2031.0
2727,2095.0
2728,2141.0
2729,2176.0
2730,2186.0
2731,2160.0
2732,2115.0
2733,2055.0
2734,1990.0
2735,1934.0
2736,1869.0
2737,1808.0
2738,1790.0
2739,1794.0
2740,1827.0
2741,1874.0
2742,1925.0
2743,1968.0
2744,2013.0
2745,2070.0
2746,2109.0
2747,2124.0
2748,2114.0
2749,2093.0
2750,2063.0
2751,2029.0
2752,1991.0
2753,1947.0
2754,1925.0
2755,1936.0
2756,1974.0
2757,2035.0
2758,2121.0
2759,2212.0
2760,2302.0
2761,2413.0
2762,2517.0
2763,2609.0
2764,2677.0
2765,2714.0
2766,2735.0
2767,2752.0
2768,2782.0
2769,2807.0
2770,2843.0
2771,2913.0
2772,3022.0
2773,3165.0
2774,3335.0
2775,3536.0
2776,3763.0
2777,4047.0
2778,4095.0
2779,4095.0
2780,4095.0
2781,4095.0
2782,4095.0
2783,4095.0
2784,4095.0
2785,3991.0
2786,3731.0
2787,3479.0
2788,3279.0
2789,3109.0
2790,2970.0
2791,2857.0
2792,2754.0
2793,2659.0
2794,2581.0
2795,2509.0
2796,2438.0
2797,2353.0
2798,2267.0
2799,2173.0
2800,2096.0
2801,2029.0
2802,1979.0
2803,1935.0
2804,1917.0
2805,1947.0
2806,1998.0
2807,2081.0
2808,2160.0
2809,2235.0
2810,2302.0
2811,2365.0
2812,2416.0
2813,2437.0
2814,2421.0
2815,2383.0
2816,2316.0
2817,2250.0
2818,2185.0
2819,2117.0
2820,2059.0
2821,2025.0
2822,2029.0
2823,2064.0
2824,2124.0
2825,2191.0
2826,2250.0
2827,2300.0
2828,2355.0
2829,2391.0
2830,2398.0
2831,2374.0
2832,2325.0
2833,2261.0
2834,2199.0
2835,2143.0
2836,2078.0
2837,2019.0
2838,2000.0
2839,2003.0
2840,2037.0
2841,2090.0
2842,2137.0
2843,2182.0
2844,2224.0
2845,2267.0
2846,2289.0
2847,2277.0
2848,2237.0
2849,2171.0
2850,2097.0
2851,2025.0
2852,1962.0
2853,1889.0
2854,1850.0
2855,1849.0
2856,1879.0
2857,1935.0
2858,1996.0
2859,2053.0
2860,2106.0
2861,2155.0
2862,2197.0
2863,2206.0
2864,2188.0
2865,2139.0
2866,2073.0
2867,2003.0
2868,1936.0
2869,1873.0
2870,1823.0
2871,1797.0
2872,1808.0
2873,1840.0
2874,1894.0
2875,1945.0
2876,1995.0
2877,2039.0
2878,2082.0
2879,2111.0
2880,2112.0
2881,2079.0
2882,2025.0
2883,1952.0
2884,1884.0
2885,1822.0
2886,1742.0
2887,1680.0
2888,1648.0
2889,1658.0
2890,1691.0
2891,1744.0
2892,1807.0
2893,1863.0
2894,1925.0
2895,1994.0
2896,2045.0
2897,2069.0
2898,2047.0
2899,2010.0
2900,1968.0
2901,1917.0
2902,1871.0
2903,1808.0
2904,1766.0
2905,1750.0
2906,1763.0
2907,1792.0
2908,1829.0
2909,1869.0
2910,1900.0
2911,1937.0
2912,1975.0
2913,1994.0
2914,1985.0
2915,1955.0
2916,1906.0
2917,1853.0
2918,1792.0
2919,1726.0
2920,1659.0
2921,1623.0
2922,1621.0
2923,1658.0
2924,1707.0
2925,1768.0
2926,1827.0
2927,1886.0
2928,1948.0
2929,1999.0
2930,2032.0
2931,2019.0
2932,1991.0
2933,1938.0
2934,1889.0
2935,1842.0
2936,1780.0
2937,1731.0
2938,1712.0
2939,1713.0
2940,1751.0
2941,1799.0
2942,1843.0
2943,1887.0
2944,1927.0
2945,1971.0
2946,2001.0
2947,2005.0
2948,1982.0
2949,1936.0
2950,1875.0
2951,1821.0
2952,1761.0
2953,1698.0
2954,1653.0
2955,1643.0
2956,1655.0
2957,1702.0
2958,1748.0
2959,1805.0
2960,1858.0
2961,1919.0
2962,1975.0
2963,2010.0
2964,2013.0
2965,1990.0
2966,1949.0
2967,1897.0
2968,1846.0
2969,1791.0
2970,1743.0
2971,1710.0
2972,1722.0
2973,1761.0
2974,1810.0
2975,1871.0
2976,1927.0
2977,1970.0
2978,2023.0
2979,2061.0
2980,2057.0
2981,2019.0
2982,1965.0
2983,1891.0
2984,1822.0
2985,1759.0
2986,1689.0
2987,1631.0
2988,1606.0
2989,1619.0
2990,1664.0
2991,1728.0
2992,1801.0
2993,1867.0
2994,1936.0
2995,2000.0
2996,2054.0
2997,2064.0
2998,2035.0
2999,1990.0
3000,1935.0
3001,1871.0
3002,1815.0
3003,1757.0
3004,1718.0
3005,1722.0
3006,1756.0
3007,1815.0
3008,1878.0
3009,1936.0
3010,1986.0
3011,2036.0
3012,2080.0
3013,2096.0
3014,2075.0
3015,2025.0
3016,1959.0
3017,1893.0
3018,1822.0
3019,1755.0
3020,1680.0
3021,1641.0
3022,1641.0
3023,1669.0
3024,1712.0
3025,1773.0
3026,1830.0
3027,1890.0
3028,1948.0
3029,1997.0
3030,2018.0
3031,2001.0
3032,1957.0
3033,1904.0
3034,1853.0
3035,1793.0
3036,1727.0
3037,1667.0
3038,1646.0
3039,1648.0
3040,1681.0
3041,1735.0
3042,1787.0
3043,1839.0
3044,1895.0
3045,1943.0
3046,1971.0
3047,1968.0
3048,1933.0
3049,1872.0
3050,1805.0
3051,1741.0
3052,1671.0
3053,1600.0
3054,1535.0
3055,1522.0
3056,1533.0
3057,1576.0
3058,1618.0
3059,1674.0
3060,1727.0
3061,1779.0
3062,1827.0
3063,1853.0
3064,1840.0
3065,1807.0
3066,1744.0
3067,1676.0
3068,1609.0
3069,1523.0
3070,1454.0
3071,1411.0
3072,1409.0
3073,1438.0
3074,1483.0
3075,1535.0
3076,1595.0
3077,1648.0
3078,1712.0
3079,1760.0
3080,1781.0
3081,1767.0
3082,1733.0
3083,1669.0
3084,1612.0
3085,1552.0
3086,1487.0
3087,1425.0
3088,1401.0
3089,1403.0
3090,1430.0
3091,1479.0
3092,1535.0
3093,1598.0
3094,1648.0
3095,1706.0
3096,1737.0
3097,1738.0
3098,1698.0
3099,1648.0
3100,1590.0
3101,1548.0
3102,1494.0
3103,1451.0
3104,1414.0
3105,1415.0
3106,1449.0
3107,1499.0
3108,1565.0
3109,1620.0
3110,1677.0
3111,1728.0
3112,1777.0
3113,1795.0
3114,1786.0
3115,1745.0
3116,1681.0
3117,1616.0
3118,1550.0
3119,1475.0
3120,1407.0
3121,1373.0
3122,1372.0
3123,1410.0
3124,1467.0
3125,1525.0
3126,1584.0
3127,1647.0
3128,1698.0
3129,1748.0
3130,1764.0
3131,1746.0
3132,1717.0
3133,1669.0
3134,1615.0
3135,1568.0
3136,1501.0
3137,1451.0
3138,1430.0
3139,1441.0
3140,1482.0
3141,1534.0
3142,1593.0
3143,1645.0
3144,1703.0
3145,1757.0
3146,1793.0
3147,1807.0
3148,1778.0
3149,1739.0
3150,1681.0
3151,1629.0
3152,1564.0
3153,1486.0
3154,1437.0
3155,1421.0
3156,1444.0
3157,1488.0
3158,1547.0
3159,1605.0
3160,1659.0
3161,1719.0
3162,1773.0
3163,1798.0
3164,1793.0
3165,1761.0
3166,1711.0
3167,1660.0
3168,1604.0
3169,1556.0
3170,1505.0
3171,1490.0
3172,1513.0
3173,1557.0
3174,1611.0
3175,1664.0
3176,1719.0
3177,1765.0
3178,1822.0
3179,1862.0
3180,1876.0
3181,1863.0
3182,1815.0
3183,1755.0
3184,1685.0
3185,1619.0
3186,1551.0
3187,1487.0
3188,1462.0
3189,1469.0
3190,1494.0
3191,1552.0
3192,1609.0
3193,1667.0
3194,1729.0
3195,1790.0
3196,1835.0
3197,1843.0
3198,1819.0
3199,1774.0
3200,1711.0
3201,1645.0
3202,1574.0
3203,1490.0
3204,1442.0
3205,1424.0
3206,1445.0
3207,1491.0
3208,1552.0
3209,1616.0
3210,1683.0
3211,1751.0
3212,1812.0
3213,1850.0
3214,1853.0
3215,1823.0
3216,1776.0
3217,1712.0
3218,1657.0
3219,1597.0
3220,1520.0
3221,1484.0
3222,1479.0
3223,1503.0
3224,1555.0
3225,1614.0
3226,1671.0
3227,1726.0
3228,1777.0
3229,1824.0
3230,1840.0
3231,1819.0
3232,1773.0
3233,1712.0
3234,1649.0
3235,1590.0
3236,1523.0
3237,1474.0
3238,1456.0
3239,1472.0
3240,1506.0
3241,1561.0
3242,1619.0
3243,1671.0
3244,1718.0
3245,1774.0
3246,1804.0
3247,1803.0
3248,1769.0
3249,1712.0
3250,1648.0
3251,1585.0
3252,1520.0
3253,1466.0
3254,1437.0
3255,1443.0
3256,1478.0
3257,1534.0
3258,1607.0
3259,1679.0
3260,1733.0
3261,1793.0
3262,1831.0
3263,1847.0
3264,1829.0
3265,1779.0
3266,1715.0
3267,1646.0
3268,1579.0
3269,1495.0
3270,1431.0
3271,1399.0
3272,1407.0
3273,1447.0
3274,1498.0
3275,1566.0
3276,1622.0
3277,1677.0
3278,1728.0
3279,1772.0
3280,1785.0
3281,1771.0
3282,1730.0
3283,1675.0
3284,1616.0
3285,1557.0
3286,1490.0
3287,1445.0
3288,1426.0
3289,1440.0
3290,1479.0
3291,1535.0
3292,1601.0
3293,1655.0
3294,1712.0
3295,1774.0
3296,1808.0
3297,1815.0
3298,1795.0
3299,1751.0
3300,1699.0
3301,1648.0
3302,1586.0
3303,1519.0
3304,1470.0
3305,1461.0
3306,1478.0
3307,1517.0
3308,1563.0
3309,1601.0
3310,1644.0
3311,1689.0
3312,1742.0
3313,1771.0
3314,1775.0
3315,1749.0
3316,1712.0
3317,1665.0
3318,1611.0
3319,1548.0
3320,1477.0
3321,1437.0
3322,1433.0
3323,1456.0
3324,1490.0
3325,1543.0
3326,1585.0
3327,1633.0
3328,1680.0
3329,1728.0
3330,1739.0
3331,1727.0
3332,1682.0
3333,1634.0
3334,1586.0
3335,1535.0
3336,1486.0
3337,1445.0
3338,1433.0
3339,1456.0
3340,1497.0
3341,1553.0
3342,1611.0
3343,1651.0
3344,1695.0
3345,1739.0
3346,1765.0
3347,1773.0
3348,1744.0
3349,1702.0
3350,1649.0
3351,1597.0
3352,1543.0
3353,1479.0
3354,1435.0
3355,1421.0
3356,1439.0
3357,1474.0
3358,1520.0
3359,1573.0
3360,1617.0
3361,1671.0
3362,1723.0
3363,1749.0
3364,1762.0
3365,1743.0
3366,1702.0
3367,1659.0
3368,1617.0
3369,1568.0
3370,1507.0
3371,1473.0
3372,1472.0
3373,1493.0
3374,1535.0
3375,1586.0
3376,1637.0
3377,1680.0
3378,1729.0
3379,1771.0
3380,1787.0
3381,1777.0
3382,1741.0
3383,1681.0
3384,1626.0
3385,1581.0
3386,1519.0
3387,1469.0
3388,1457.0
3389,1477.0
3390,1526.0
3391,1587.0
3392,1653.0
3393,1707.0
3394,1755.0
3395,1808.0
3396,1843.0
3397,1843.0
3398,1818.0
3399,1765.0
3400,1701.0
3401,1637.0
3402,1574.0
3403,1503.0
3404,1454.0
3405,1427.0
3406,1446.0
3407,1475.0
3408,1525.0
3409,1585.0
3410,1646.0
3411,1703.0
3412,1770.0
3413,1807.0
3414,1810.0
3415,1790.0
3416,1741.0
3417,1695.0
3418,1642.0
3419,1585.0
3420,1521.0
3421,1488.0
3422,1493.0
3423,1531.0
3424,1585.0
3425,1642.0
3426,1691.0
3427,1732.0
3428,1779.0
3429,1808.0
3430,1815.0
3431,1785.0
3432,1743.0
3433,1680.0
3434,1627.0
3435,1578.0
3436,1521.0
3437,1483.0
3438,1470.0
3439,1488.0
3440,1534.0
3441,1598.0
3442,1664.0
3443,1717.0
3444,1766.0
3445,1813.0
3446,1853.0
3447,1860.0
3448,1838.0
3449,1794.0
3450,1741.0
3451,1684.0
3452,1645.0
3453,1604.0
3454,1581.0
3455,1590.0
3456,1626.0
3457,1691.0
3458,1755.0
3459,1813.0
3460,1863.0
3461,1915.0
3462,1954.0
3463,1968.0
3464,1943.0
3465,1895.0
3466,1827.0
3467,1756.0
3468,1686.0
3469,1630.0
3470,1573.0
3471,1547.0
3472,1555.0
3473,1594.0
3474,1648.0
3475,1713.0
3476,1777.0
3477,1840.0
3478,1904.0
3479,1947.0
3480,1965.0
3481,1947.0
3482,1908.0
3483,1847.0
3484,1778.0
3485,1714.0
3486,1648.0
3487,1584.0
3488,1552.0
3489,1555.0
3490,1585.0
3491,1633.0
3492,1685.0
3493,1733.0
3494,1788.0
3495,1840.0
3496,1875.0
3497,1874.0
3498,1843.0
3499,1786.0
3500,1713.0
3501,1646.0
3502,1572.0
3503,1486.0
3504,1431.0
3505,1405.0
3506,1413.0
3507,1447.0
3508,1488.0
3509,1547.0
3510,1591.0
3511,1646.0
3512,1695.0
3513,1739.0
3514,1743.0
3515,1725.0
3516,1682.0
3517,1639.0
3518,1584.0
3519,1520.0
3520,1455.0
3521,1414.0
3522,1409.0
3523,1431.0
3524,1470.0
3525,1520.0
3526,1579.0
3527,1619.0
3528,1680.0
3529,1727.0
3530,1744.0
3531,1733.0
3532,1692.0
3533,1631.0
3534,1575.0
3535,1505.0
3536,1441.0
3537,1391.0
3538,1360.0
3539,1363.0
3540,1393.0
3541,1441.0
3542,1491.0
3543,1547.0
3544,1599.0
3545,1650.0
3546,1692.0
3547,1705.0
3548,1683.0
3549,1641.0
3550,1586.0
3551,1530.0
3552,1477.0
3553,1413.0
3554,1370.0
3555,1357.0
3556,1378.0
3557,1418.0
3558,1477.0
3559,1535.0
3560,1595.0
3561,1651.0
3562,1702.0
3563,1730.0
3564,1730.0
3565,1703.0
3566,1650.0
3567,1590.0
3568,1525.0
3569,1459.0
3570,1394.0
3571,1360.0
3572,1366.0
3573,1408.0
3574,1461.0
3575,1525.0
3576,1593.0
3577,1647.0
3578,1711.0
3579,1754.0
3580,1775.0
3581,1745.0
3582,1695.0
3583,1624.0
3584,1535.0
3585,1461.0
3586,1377.0
3587,1314.0
3588,1281.0
3589,1300.0
3590,1342.0
3591,1409.0
3592,1487.0
3593,1562.0
3594,1638.0
3595,1711.0
3596,1764.0
3597,1778.0
3598,1771.0
3599,1733.0
3600,1684.0
3601,1633.0
3602,1578.0
3603,1500.0
3604,1443.0
3605,1428.0
3606,1439.0
3607,1481.0
3608,1543.0
3609,1602.0
3610,1664.0
3611,1723.0
3612,1781.0
3613,1821.0
3614,1833.0
3615,1809.0
3616,1775.0
3617,1723.0
3618,1673.0
3619,1616.0
3620,1568.0
3621,1545.0
3622,1572.0
3623,1632.0
3624,1719.0
3625,1830.0
3626,1949.0
3627,2075.0
3628,2207.0
3629,2335.0
3630,2445.0
3631,2521.0
3632,2579.0
3633,2613.0
3634,2646.0
3635,2682.0
3636,2706.0
3637,2742.0
3638,2806.0
3639,2911.0
3640,3037.0
3641,3194.0
3642,3365.0
3643,3536.0
3644,3739.0
3645,3942.0
3646,4095.0
3647,4095.0
3648,4074.0
3649,3900.0
3650,3653.0
3651,3423.0
3652,3184.0
3653,2931.0
3654,2694.0
3655,2490.0
3656,2331.0
3657,2203.0
3658,2096.0
3659,1998.0
3660,1918.0
3661,1855.0
3662,1815.0
3663,1776.0
3664,1726.0
3665,1676.0
3666,1615.0
3667,1571.0
3668,1530.0
3669,1495.0
3670,1467.0
3671,1469.0
3672,1508.0
3673,1575.0
3674,1659.0
3675,1745.0
3676,1834.0
3677,1909.0
3678,1983.0
3679,2046.0
3680,2080.0
3681,2077.0
3682,2035.0
3683,1983.0
3684,1921.0
3685,1858.0
3686,1776.0
3687,1709.0
3688,1662.0
3689,1654.0
3690,1678.0
3691,1717.0
3692,1763.0
3693,1808.0
3694,1854.0
3695,1905.0
3696,1941.0
3697,1959.0
3698,1941.0
3699,1905.0
3700,1857.0
3701,1803.0
3702,1749.0
3703,1691.0
3704,1642.0
3705,1628.0
3706,1633.0
3707,1667.0
3708,1709.0
3709,1755.0
3710,1811.0
3711,1861.0
3712,1917.0
3713,1947.0
3714,1952.0
3715,1926.0
3716,1878.0
3717,1819.0
3718,1758.0
3719,1685.0
3720,1614.0
3721,1562.0
3722,1545.0
3723,1553.0
3724,1594.0
3725,1639.0
3726,1691.0
3727,1744.0
3728,1795.0
3729,1840.0
3730,1859.0
3731,1843.0
3732,1807.0
3733,1757.0
3734,1705.0
3735,1654.0
3736,1600.0
3737,1543.0
3738,1513.0
3739,1521.0
3740,1577.0
3741,1633.0
3742,1706.0
3743,1774.0
3744,1833.0
3745,1887.0
3746,1920.0
3747,1936.0
3748,1910.0
3749,1866.0
3750,1806.0
3751,1743.0
3752,1671.0
3753,1598.0
3754,1526.0
3755,1498.0
3756,1504.0
3757,1535.0
3758,1590.0
3759,1638.0
3760,1687.0
3761,1743.0
3762,1796.0
3763,1831.0
3764,1840.0
3765,1811.0
3766,1770.0
3767,1719.0
3768,1666.0
3769,1616.0
3770,1564.0
3771,1522.0
3772,1523.0
3773,1552.0
3774,1600.0
3775,1664.0
3776,1727.0
3777,1779.0
3778,1829.0
3779,1872.0
3780,1886.0
3781,1871.0
3782,1824.0
3783,1751.0
3784,1681.0
3785,1615.0
3786,1548.0
3787,1479.0
3788,1462.0
3789,1473.0
3790,1520.0
3791,1585.0
3792,1651.0
3793,1714.0
3794,1771.0
3795,1837.0
3796,1874.0
3797,1879.0
3798,1856.0
3799,1809.0
3800,1749.0
3801,1690.0
3802,1633.0
3803,1577.0
3804,1522.0
3805,1505.0
3806,1521.0
3807,1565.0
3808,1616.0
3809,1666.0
3810,1711.0
3811,1765.0
3812,1808.0
3813,1839.0
3814,1841.0
3815,1828.0
3816,1790.0
3817,1745.0
3818,1707.0
3819,1658.0
3820,1600.0
3821,1565.0
3822,1554.0
3823,1577.0
3824,1616.0
3825,1670.0
3826,1729.0
3827,1781.0
3828,1844.0
3829,1903.0
3830,1924.0
3831,1911.0
3832,1873.0
3833,1821.0
3834,1759.0
3835,1687.0
3836,1618.0
3837,1552.0
3838,1510.0
3839,1519.0
3840,1552.0
3841,1601.0
3842,1662.0
3843,1717.0
3844,1783.0
3845,1847.0
3846,1905.0
3847,1927.0
3848,1920.0
3849,1889.0
3850,1840.0
3851,1779.0
3852,1719.0
3853,1655.0
3854,1602.0
3855,1583.0
3856,1585.0
3857,1840.0
3858,1787.0
3859,1724.0
3860,1659.0
3861,1595.0
3862,1523.0
3863,1470.0
3864,1456.0
3865,1471.0
3866,1510.0
3867,1558.0
3868,1616.0
3869,1661.0
3870,1712.0
3871,1753.0
3872,1776.0
3873,1765.0
3874,1728.0
3875,1664.0
3876,1600.0
3877,1531.0
3878,1469.0
3879,1413.0
3880,1379.0
3881,1381.0
3882,1410.0
3883,1455.0
3884,1503.0
3885,1547.0
3886,1581.0
3887,1617.0
3888,1648.0
3889,1652.0
3890,1627.0
3891,1584.0
3892,1513.0
3893,1456.0
3894,1470.0
3895,1408.0
3896,1347.0
3897,1286.0
3898,1215.0
3899,1167.0
3900,1159.0
3901,1182.0
3902,1232.0
3903,1299.0
3904,1369.0
3905,1440.0
3906,1502.0
3907,1558.0
3908,1584.0
3909,1575.0
3910,1533.0
3911,1474.0
3912,1404.0
3913,1331.0
3914,1264.0
3915,1205.0
3916,1169.0
3917,1184.0
3918,1219.0
3919,1280.0
3920,1346.0
3921,1417.0
3922,1481.0
3923,1554.0
3924,1602.0
3925,1625.0
3926,1605.0
3927,1563.0
3928,1505.0
3929,1445.0
3930,1382.0
3931,1311.0
3932,1263.0
3933,1242.0
3934,1257.0
3935,1296.0
3936,1349.0
3937,1392.0
3938,1444.0
3939,1497.0
3940,1552.0
3941,1584.0
3942,1583.0
3943,1553.0
3944,1502.0
3945,1455.0
3946,1407.0
3947,1360.0
3948,1314.0
3949,1291.0
3950,1301.0
3951,1345.0
3952,1402.0
3953,1459.0
3954,1509.0
3955,1557.0
3956,1600.0
3957,1632.0
3958,1648.0
3959,1631.0
3960,1590.0
3961,1527.0
3962,1466.0
3963,1410.0
3964,1346.0
3965,1295.0
3966,1267.0
3967,1279.0
3968,1317.0
3969,1379.0
3970,1441.0
3971,1502.0
3972,1567.0
3973,1622.0
3974,1666.0
3975,1680.0
3976,1661.0
3977,1616.0
3978,1559.0
3979,1494.0
3980,1438.0
3981,1378.0
3982,1334.0
3983,1328.0
3984,1354.0
3985,1409.0
3986,1487.0
3987,1563.0
3988,1628.0
3989,1690.0
3990,1744.0
3991,1778.0
3992,1775.0
3993,1732.0
3994,1670.0
3995,1601.0
3996,1520.0
3997,1438.0
3998,1360.0
3999,1306.0
4000,1296.0
4001,1318.0
4002,1360.0
4003,1422.0
4004,1480.0
4005,1549.0
4006,1613.0
4007,1668.0
4008,1712.0
4009,1719.0
4010,1698.0
4011,1649.0
4012,1594.0
4013,1529.0
4014,1457.0
4015,1392.0
4016,1360.0
4017,1370.0
4018,1408.0
4019,1471.0
4020,1535.0
4021,1602.0
4022,1667.0
4023,1731.0
4024,1776.0
4025,1795.0
4026,1776.0
4027,1731.0
4028,1670.0
4029,1599.0
4030,1531.0
4031,1452.0
4032,1389.0
4033,1363.0
4034,1367.0
4035,1408.0
4036,1469.0
4037,1523.0
4038,1593.0
4039,1660.0
4040,1727.0
4041,1767.0
4042,1770.0
4043,1744.0
4044,1685.0
4045,1628.0
4046,1565.0
4047,1493.0
4048,1423.0
4049,1391.0
4050,1389.0
4051,1410.0
4052,1463.0
4053,1521.0
4054,1585.0
4055,1634.0
4056,1687.0
4057,1732.0
4058,1758.0
4059,1750.0
4060,1713.0
4061,1669.0
4062,1615.0
4063,1570.0
4064,1520.0
4065,1485.0
4066,1475.0
4067,1499.0
4068,1554.0
4069,1617.0
4070,1680.0
4071,1743.0
4072,1792.0
4073,1835.0
4074,1867.0
4075,1872.0
4076,1840.0
4077,1787.0
4078,1713.0
4079,1643.0
4080,1577.0
4081,1493.0
4082,1438.0
4083,1421.0
4084,1439.0
4085,1473.0
4086,1535.0
4087,1599.0
4088,1659.0
4089,1711.0
4090,1776.0
4091,1813.0
4092,1828.0
4093,1809.0
4094,1776.0
4095,1728.0
4096,1672.0
4097,1603.0
4098,1546.0
4099,1494.0
4100,1489.0
4101,1512.0
4102,1557.0
4103,1612.0
4104,1667.0
4105,1721.0
4106,1771.0
4107,1824.0
4108,1843.0
4109,1847.0
4110,1814.0
4111,1765.0
4112,1712.0
4113,1654.0
4114,1597.0
4115,1533.0
4116,1504.0
4117,1503.0
4118,1535.0
4119,1586.0
4120,1645.0
4121,1687.0
4122,1744.0
4123,1805.0
4124,1847.0
4125,1872.0
4126,1859.0
4127,1829.0
4128,1776.0
4129,1727.0
4130,1667.0
4131,1603.0
4132,1552.0
4133,1531.0
4134,1547.0
4135,1584.0
4136,1629.0
4137,1682.0
4138,1731.0
4139,1783.0
4140,1839.0
4141,1862.0
4142,1872.0
4143,1843.0
4144,1807.0
4145,1754.0
4146,1712.0
4147,1661.0
4148,1616.0
4149,1586.0
4150,1584.0
4151,1606.0
4152,1648.0
4153,1687.0
4154,1739.0
4155,1777.0
4156,1819.0
4157,1858.0
4158,1866.0
4159,1853.0
4160,1812.0
4161,1755.0
4162,1698.0
4163,1629.0
4164,1573.0
4165,1507.0
4166,1483.0
4167,1497.0
4168,1547.0
4169,1601.0
4170,1669.0
4171,1735.0
4172,1795.0
4173,1862.0
4174,1913.0
4175,1937.0
4176,1936.0
4177,1909.0
4178,1872.0
4179,1826.0
4180,1775.0
4181,1712.0
4182,1656.0
4183,1632.0
4184,1641.0
4185,1673.0
4186,1716.0
4187,1763.0
4188,1808.0
4189,1850.0
4190,1899.0
4191,1916.0
4192,1916.0
4193,1886.0
4194,1837.0
4195,1773.0
4196,1707.0
4197,1648.0
4198,1581.0
4199,1549.0
4200,1550.0
4201,1581.0
4202,1635.0
4203,1695.0
4204,1758.0
4205,1807.0
4206,1862.0
4207,1920.0
4208,1941.0
4209,1936.0
4210,1901.0
4211,1851.0
4212,1789.0
4213,1733.0
4214,1663.0
4215,1600.0
4216,1568.0
4217,1568.0
4218,1599.0
4219,1648.0
4220,1708.0
4221,1756.0
4222,1799.0
4223,1851.0
4224,1895.0
4225,1907.0
4226,1884.0
4227,1840.0
4228,1777.0
4229,1717.0
4230,1657.0
4231,1599.0
4232,1552.0
4233,1545.0
4234,1573.0
4235,1619.0
4236,1680.0
4237,1746.0
4238,1808.0
4239,1873.0
4240,1937.0
4241,1984.0
4242,1995.0
4243,1979.0
4244,1936.0
4245,1872.0
4246,1810.0
4247,1743.0
4248,1666.0
4249,1613.0
4250,1600.0
4251,1619.0
4252,1665.0
4253,1721.0
4254,1791.0
4255,1857.0
4256,1921.0
4257,1981.0
4258,2005.0
4259,1999.0
4260,1967.0
4261,1913.0
4262,1862.0
4263,1817.0
4264,1756.0
4265,1699.0
4266,1675.0
4267,1678.0
4268,1712.0
4269,1774.0
4270,1839.0
4271,1903.0
4272,1968.0
4273,2026.0
4274,2075.0
4275,2104.0
4276,2096.0
4277,2059.0
4278,2002.0
4279,1939.0
4280,1879.0
4281,1813.0
4282,1763.0
4283,1746.0
4284,1766.0
4285,1813.0
4286,1871.0
4287,1927.0
4288,1978.0
4289,2021.0
4290,2070.0
4291,2095.0
4292,2094.0
4293,2060.0
4294,1999.0
4295,1941.0
4296,1881.0
4297,1825.0
4298,1765.0
4299,1729.0
4300,1723.0
4301,1748.0
4302,1794.0
4303,1846.0
4304,1901.0
4305,1946.0
4306,1998.0
4307,2045.0
4308,2074.0
4309,2065.0
4310,2026.0
4311,1977.0
4312,1925.0
4313,1867.0
4314,1798.0
4315,1733.0
4316,1698.0
4317,1699.0
4318,1719.0
4319,1767.0
4320,1813.0
4321,1857.0
4322,1904.0
4323,1954.0
4324,1993.0
4325,2002.0
4326,1985.0
4327,1939.0
4328,1886.0
4329,1822.0
4330,1767.0
4331,1707.0
4332,1655.0
4333,1646.0
4334,1665.0
4335,1712.0
4336,1771.0
4337,1831.0
4338,1879.0
4339,1928.0
4340,1973.0
4341,1995.0
4342,1995.0
4343,1955.0
4344,1900.0
4345,1838.0
4346,1775.0
4347,1712.0
4348,1648.0
4349,1601.0
4350,1598.0
4351,1625.0
4352,1679.0
4353,1737.0
4354,1797.0
4355,1857.0
4356,1918.0
4357,1969.0
4358,2003.0
4359,2001.0
4360,1977.0
4361,1926.0
4362,1867.0
4363,1808.0
4364,1744.0
4365,1680.0
4366,1648.0
4367,1655.0
4368,1687.0
4369,1737.0
4370,1789.0
4371,1834.0
4372,1872.0
4373,1919.0
4374,1955.0
4375,1965.0
4376,1937.0
4377,1891.0
4378,1833.0
4379,1771.0
4380,1714.0
4381,1649.0
4382,1599.0
4383,1586.0
4384,1606.0
4385,1653.0
4386,1712.0
4387,1775.0
4388,1833.0
4389,1893.0
4390,1951.0
4391,1991.0
4392,2013.0
4393,2000.0
4394,1957.0
4395,1909.0
4396,1855.0
4397,1795.0
4398,1737.0
4399,1697.0
4400,1693.0
4401,1712.0
4402,1753.0
4403,1808.0
4404,1870.0
4405,1925.0
4406,1989.0
4407,2042.0
4408,2077.0
4409,2071.0
4410,2034.0
4411,1981.0
4412,1923.0
4413,1862.0
4414,1799.0
4415,1737.0
4416,1709.0
4417,1713.0
4418,1745.0
4419,1805.0
4420,1869.0
4421,1921.0
4422,1974.0
4423,2029.0
4424,2069.0
4425,2086.0
4426,2064.0
4427,2015.0
4428,1959.0
4429,1891.0
4430,1836.0
4431,1776.0
4432,1731.0
4433,1731.0
4434,1763.0
4435,1819.0
4436,1895.0
4437,1969.0
4438,2045.0
4439,2131.0
4440,2222.0
4441,2303.0
4442,2365.0
4443,2395.0
4444,2416.0
4445,2427.0
4446,2437.0
4447,2451.0
4448,2469.0
4449,2497.0
4450,2574.0
4451,2675.0
4452,2818.0
4453,2985.0
4454,3169.0
4455,3367.0
4456,3595.0
4457,3858.0
4458,4095.0
4459,4095.0
4460,4095.0
4461,4095.0
4462,4095.0
4463,4095.0
4464,4095.0
4465,4095.0
4466,3973.0
4467,3833.0
4468,3693.0
4469,3555.0
4470,3408.0
4471,3254.0
4472,3109.0
4473,2963.0
4474,2832.0
4475,2683.0
4476,2518.0
4477,2355.0
4478,2200.0
4479,2069.0
4480,1953.0
4481,1858.0
4482,1787.0
4483,1762.0
4484,1793.0
4485,1863.0
4486,1952.0
4487,2053.0
4488,2150.0
4489,2240.0
4490,2329.0
4491,2400.0
4492,2426.0
4493,2414.0
4494,2371.0
4495,2320.0
4496,2253.0
4497,2186.0
4498,2113.0
4499,2064.0
4500,2055.0
4501,2078.0
4502,2123.0
4503,2174.0
4504,2230.0
4505,2281.0
4506,2325.0
4507,2368.0
4508,2384.0
4509,2366.0
4510,2320.0
4511,2251.0
4512,2174.0
4513,2098.0
4514,2015.0
4515,1941.0
4516,1890.0
4517,1877.0
4518,1890.0
4519,1922.0
4520,1968.0
4521,2012.0
4522,2064.0
4523,2112.0
4524,2155.0
4525,2166.0
4526,2154.0
4527,2122.0
4528,2069.0
4529,2018.0
4530,1966.0
4531,1902.0
4532,1840.0
4533,1822.0
4534,1838.0
4535,1876.0
4536,1936.0
4537,1986.0
4538,2034.0
4539,2090.0
4540,2142.0
4541,2166.0
4542,2161.0
4543,2129.0
4544,2064.0
4545,1994.0
4546,1915.0
4547,1842.0
4548,1765.0
4549,1707.0
4550,1681.0
4551,1694.0
4552,1736.0
4553,1792.0
4554,1856.0
4555,1907.0
4556,1967.0
4557,2016.0
4558,2045.0
4559,2047.0
4560,2021.0
4561,1968.0
4562,1913.0
4563,1858.0
4564,1801.0
4565,1741.0
4566,1705.0
4567,1712.0
4568,1744.0
4569,1799.0
4570,1858.0
4571,1915.0
4572,1969.0
4573,2031.0
4574,2081.0
4575,2094.0
4576,2075.0
4577,2028.0
4578,1967.0
4579,1911.0
4580,1852.0
4581,1786.0
4582,1728.0
4583,1698.0
4584,1706.0
4585,1733.0
4586,1771.0
4587,1818.0
4588,1864.0
4589,1918.0
4590,1968.0
4591,2000.0
4592,2011.0
4593,1988.0
4594,1946.0
4595,1891.0
4596,1837.0
4597,1770.0
4598,1709.0
4599,1664.0
4600,1663.0
4601,1691.0
4602,1743.0
4603,1807.0
4604,1868.0
4605,1923.0
4606,1970.0
4607,2017.0
4608,2039.0
4609,2033.0
4610,2000.0
4611,1947.0
4612,1889.0
4613,1830.0
4614,1757.0
4615,1687.0
4616,1648.0
4617,1648.0
4618,1678.0
4619,1727.0
4620,1792.0
4621,1853.0
4622,1909.0
4623,1968.0
4624,2022.0
4625,2047.0
4626,2039.0
4627,2001.0
4628,1937.0
4629,1875.0
4630,1810.0
4631,1744.0
4632,1689.0
4633,1674.0
4634,1696.0
4635,1744.0
4636,1805.0
4637,1864.0
4638,1915.0
4639,1967.0
4640,2009.0
4641,2041.0
4642,2042.0
4643,2003.0
4644,1955.0
4645,1905.0
4646,1857.0
4647,1819.0
4648,1770.0
4649,1743.0
4650,1748.0
4651,1787.0
4652,1843.0
4653,1904.0
4654,1958.0
4655,2011.0
4656,2064.0
4657,2107.0
4658,2128.0
4659,2118.0
4660,2081.0
4661,2018.0
4662,1955.0
4663,1898.0
4664,1825.0
4665,1763.0
4666,1726.0
4667,1728.0
4668,1764.0
4669,1817.0
4670,1872.0
4671,1923.0
4672,1973.0
4673,2023.0
4674,2075.0
4675,2097.0
4676,2085.0
4677,2046.0
4678,1997.0
4679,1942.0
4680,1900.0
4681,1841.0
4682,1781.0
4683,1762.0
4684,1764.0
4685,1797.0
4686,1840.0
4687,1889.0
4688,1937.0
4689,1991.0
4690,2056.0
4691,2103.0
4692,2114.0
4693,2101.0
4694,2065.0
4695,2025.0
4696,1975.0
4697,1921.0
4698,1866.0
4699,1817.0
4700,1795.0
4701,1805.0
4702,1839.0
4703,1875.0
4704,1923.0
4705,1971.0
4706,2023.0
4707,2073.0
4708,2101.0
4709,2096.0
4710,2066.0
4711,2009.0
4712,1947.0
4713,1891.0
4714,1834.0
4715,1777.0
4716,1751.0
4717,1744.0
4718,1774.0
4719,1810.0
4720,1862.0
4721,1904.0
4722,1943.0
4723,1985.0
4724,2017.0
4725,2023.0
4726,2001.0
4727,1968.0
4728,1913.0
4729,1854.0
4730,1803.0
4731,1740.0
4732,1680.0
4733,1649.0
4734,1648.0
4735,1675.0
4736,1714.0
4737,1771.0
4738,1825.0
4739,1883.0
4740,1936.0
4741,1977.0
4742,1980.0
4743,1955.0
4744,1900.0
4745,1836.0
4746,1760.0
4747,1681.0
4748,1603.0
4749,1535.0
4750,1510.0
4751,1519.0
4752,1558.0
4753,1615.0
4754,1673.0
4755,1729.0
4756,1788.0
4757,1831.0
4758,1855.0
4759,1849.0
4760,1819.0
4761,1766.0
4762,1701.0
4763,1641.0
4764,1571.0
4765,1490.0
4766,1441.0
4767,1430.0
4768,1445.0
4769,1488.0
4770,1552.0
4771,1606.0
4772,1664.0
4773,1724.0
4774,1777.0
4775,1807.0
4776,1798.0
4777,1773.0
4778,1726.0
4779,1670.0
4780,1619.0
4781,1561.0
4782,1501.0
4783,1473.0
4784,1483.0
4785,1520.0
4786,1571.0
4787,1625.0
4788,1680.0
4789,1727.0
4790,1767.0
4791,1785.0
4792,1776.0
4793,1744.0
4794,1690.0
4795,1637.0
4796,1584.0
4797,1523.0
4798,1466.0
4799,1424.0
4800,1424.0
4801,1449.0
4802,1495.0
4803,1567.0
4804,1639.0
4805,1710.0
4806,1776.0
4807,1840.0
4808,1872.0
4809,1869.0
4810,1840.0
4811,1789.0
4812,1726.0
4813,1661.0
4814,1588.0
4815,1515.0
4816,1463.0
4817,1451.0
4818,1470.0
4819,1510.0
4820,1571.0
4821,1632.0
4822,1700.0
4823,1769.0
4824,1823.0
4825,1855.0
4826,1854.0
4827,1831.0
4828,1792.0
4829,1744.0
4830,1686.0
4831,1633.0
4832,1576.0
4833,1546.0
4834,1546.0
4835,1573.0
4836,1615.0
4837,1663.0
4838,1719.0
4839,1767.0
4840,1813.0
4841,1843.0
4842,1850.0
4843,1826.0
4844,1781.0
4845,1728.0
4846,1680.0
4847,1630.0
4848,1581.0
4849,1547.0
4850,1547.0
4851,1578.0
4852,1631.0
4853,1692.0
4854,1756.0
4855,1813.0
4856,1871.0
4857,1920.0
4858,1948.0
4859,1946.0
4860,1911.0
4861,1851.0
4862,1786.0
4863,1715.0
4864,1646.0
4865,1580.0
4866,1535.0
4867,1535.0
4868,1574.0
4869,1626.0
4870,1694.0
4871,1761.0
4872,1813.0
4873,1875.0
4874,1931.0
4875,1956.0
4876,1951.0
4877,1909.0
4878,1853.0
4879,1783.0
4880,1713.0
4881,1637.0
4882,1574.0
4883,1530.0
4884,1545.0
4885,1584.0
4886,1643.0
4887,1712.0
4888,1781.0
4889,1840.0
4890,1898.0
4891,1936.0
4892,1943.0
4893,1921.0
4894,1872.0
4895,1822.0
4896,1755.0
4897,1701.0
4898,1639.0
4899,1589.0
4900,1577.0
4901,1595.0
4902,1641.0
4903,1702.0
4904,1761.0
4905,1809.0
4906,1865.0
4907,1915.0
4908,1945.0
4909,1940.0
4910,1915.0
4911,1860.0
4912,1803.0
4913,1744.0
4914,1695.0
4915,1643.0
4916,1614.0
4917,1619.0
4918,1656.0
4919,1709.0
4920,1762.0
4921,1813.0
4922,1863.0
4923,1909.0
4924,1943.0
4925,1952.0
4926,1927.0
4927,1877.0
4928,1821.0
4929,1755.0
4930,1698.0
4931,1632.0
4932,1577.0
4933,1552.0
4934,1567.0
4935,1609.0
4936,1672.0
4937,1737.0
4938,1797.0
4939,1853.0
4940,1905.0
4941,1942.0
4942,1951.0
4943,1930.0
4944,1891.0
4945,1843.0
4946,1797.0
4947,1748.0
4948,1702.0
4949,1665.0
4950,1660.0
4951,1677.0
4952,1714.0
4953,1760.0
4954,1810.0
4955,1854.0
4956,1897.0
4957,1931.0
4958,1943.0
4959,1929.0
4960,1889.0
4961,1829.0
4962,1761.0
4963,1697.0
4964,1634.0
4965,1582.0
4966,1545.0
4967,1554.0
4968,1590.0
4969,1653.0
4970,1713.0
4971,1776.0
4972,1836.0
4973,1902.0
4974,1943.0
4975,1968.0
4976,1963.0
4977,1922.0
4978,1870.0
4979,1809.0
4980,1747.0
4981,1677.0
4982,1614.0
4983,1587.0
4984,1589.0
4985,1613.0
4986,1665.0
4987,1713.0
4988,1767.0
4989,1817.0
4990,1872.0
4991,1915.0
4992,1932.0
4993,1918.0
4994,1872.0
4995,1811.0
4996,1746.0
4997,1683.0
4998,1619.0
4999,1583.0
5000,1581.0
5001,1599.0
5002,1662.0
5003,1724.0
5004,1791.0
5005,1847.0
5006,1904.0
5007,1954.0
5008,1985.0
5009,1979.0
5010,1949.0
5011,1895.0
5012,1837.0
5013,1774.0
5014,1712.0
5015,1649.0
5016,1611.0
5017,1616.0
5018,1643.0
5019,1698.0
5020,1755.0
5021,1808.0
5022,1861.0
5023,1911.0
5024,1955.0
5025,1968.0
5026,1953.0
5027,1907.0
5028,1842.0
5029,1788.0
5030,1731.0
5031,1659.0
5032,1616.0
5033,1590.0
5034,1594.0
5035,1619.0
5036,1661.0
5037,1705.0
5038,1742.0
5039,1776.0
5040,1820.0
5041,1847.0
5042,1855.0
5043,1830.0
5044,1787.0
5045,1728.0
5046,1680.0
5047,1629.0
5048,1578.0
5049,1535.0
5050,1534.0
5051,1563.0
5052,1615.0
5053,1683.0
5054,1753.0
5055,1824.0
5056,1884.0
5057,1946.0
5058,1985.0
5059,1986.0
5060,1955.0
5061,1894.0
5062,1827.0
5063,1755.0
5064,1679.0
5065,1600.0
5066,1552.0
5067,1530.0
5068,1550.0
5069,1585.0
5070,1633.0
5071,1681.0
5072,1732.0
5073,1786.0
5074,1840.0
5075,1871.0
5076,1874.0
5077,1862.0
5078,1828.0
5079,1789.0
5080,1744.0
5081,1687.0
5082,1635.0
5083,1607.0
5084,1615.0
5085,1652.0
5086,1702.0
5087,1751.0
5088,1803.0
5089,1853.0
5090,1904.0
5091,1938.0
5092,1949.0
5093,1926.0
5094,1882.0
5095,1827.0
5096,1764.0
5097,1701.0
5098,1629.0
5099,1573.0
5100,1553.0
5101,1561.0
5102,1594.0
5103,1636.0
5104,1687.0
5105,1731.0
5106,1776.0
5107,1835.0
5108,1872.0
5109,1877.0
5110,1855.0
5111,1809.0
5112,1766.0
5113,1720.0
5114,1670.0
5115,1619.0
5116,1597.0
5117,1601.0
5118,1632.0
5119,1675.0
5120,1742.0
5121,1800.0
5122,1858.0
5123,1917.0
5124,1963.0
5125,1984.0
5126,1969.0
5127,1929.0
5128,1871.0
5129,1799.0
5130,1731.0
5131,1867.0
5132,1926.0
5133,1970.0
5134,2032.0
5135,2094.0
5136,2123.0
5137,2123.0
5138,2090.0
5139,2030.0
5140,1968.0
5141,1903.0
5142,1835.0
5143,1758.0
5144,1709.0
5145,1697.0
5146,1715.0
5147,1766.0
5148,1821.0
5149,1878.0
5150,1934.0
5151,1999.0
5152,2055.0
5153,2083.0
5154,2079.0
5155,2041.0
5156,1993.0
5157,1937.0
5158,1875.0
5159,1819.0
5160,1757.0
5161,1722.0
5162,1718.0
5163,1743.0
5164,1778.0
5165,1840.0
5166,1889.0
5167,1941.0
5168,1999.0
5169,2031.0
5170,2039.0
5171,2015.0
5172,1967.0
5173,1904.0
5174,1830.0
5175,1760.0
5176,1683.0
5177,1633.0
5178,1616.0
5179,1647.0
5180,1702.0
5181,1773.0
5182,1846.0
5183,1904.0
5184,1959.0
5185,2000.0
5186,2022.0
5187,2015.0
5188,1981.0
5189,1929.0
5190,1877.0
5191,1839.0
5192,1781.0
5193,1740.0
5194,1703.0
5195,1705.0
5196,1731.0
5197,1784.0
5198,1840.0
5199,1893.0
5200,1937.0
5201,1984.0
5202,2018.0
5203,2026.0
5204,2003.0
5205,1961.0
5206,1902.0
5207,1831.0
5208,1766.0
5209,1698.0
5210,1631.0
5211,1590.0
5212,1597.0
5213,1633.0
5214,1693.0
5215,1769.0
5216,1840.0
5217,1907.0
5218,1979.0
5219,2031.0
5220,2064.0
5221,2047.0
5222,2015.0
5223,1967.0
5224,1916.0
5225,1861.0
5226,1798.0
5227,1744.0
5228,1732.0
5229,1744.0
5230,1783.0
5231,1837.0
5232,1896.0
5233,1937.0
5234,1983.0
5235,2029.0
5236,2047.0
5237,2054.0
5238,2018.0
5239,1963.0
5240,1908.0
5241,1855.0
5242,1803.0
5243,1746.0
5244,1712.0
5245,1707.0
5246,1729.0
5247,1782.0
5248,1851.0
5249,1914.0
5250,1973.0
5251,2032.0
5252,2089.0
5253,2121.0
5254,2118.0
5255,2102.0
5256,2064.0
5257,2022.0
5258,1996.0
5259,1966.0
5260,1939.0
5261,1946.0
5262,1994.0
5263,2084.0
5264,2185.0
5265,2304.0
5266,2416.0
5267,2543.0
5268,2679.0
5269,2803.0
5270,2903.0
5271,2983.0
5272,3045.0
5273,3109.0
5274,3159.0
5275,3216.0
5276,3263.0
5277,3311.0
5278,3408.0
5279,3535.0
5280,3714.0
5281,3921.0
5282,4095.0
5283,4095.0
5284,4095.0
5285,4095.0
5286,4095.0
5287,4095.0
5288,3904.0
5289,3623.0
5290,3361.0
5291,3120.0
5292,2882.0
5293,2655.0
5294,2458.0
5295,2314.0
5296,2214.0
5297,2154.0
5298,2113.0
5299,2091.0
5300,2080.0
5301,2087.0
5302,2110.0
5303,2131.0
5304,2128.0
5305,2118.0
5306,2095.0
5307,2063.0
5308,2042.0
5309,2005.0
5310,1970.0
5311,1955.0
5312,1975.0
5313,2023.0
5314,2087.0
5315,2157.0
5316,2221.0
5317,2275.0
5318,2338.0
5319,2382.0
5320,2399.0
5321,2387.0
5322,2349.0
5323,2291.0
5324,2226.0
5325,2165.0
5326,2099.0
5327,2032.0
5328,2016.0
5329,2026.0
5330,2063.0
5331,2115.0
5332,2159.0
5333,2210.0
5334,2255.0
5335,2298.0
5336,2320.0
5337,2320.0
5338,2288.0
5339,2240.0
5340,2184.0
5341,2127.0
5342,2064.0
5343,1998.0
5344,1947.0
5345,1926.0
5346,1936.0
5347,1957.0
5348,2001.0
5349,2047.0
5350,2084.0
5351,2128.0
5352,2167.0
5353,2193.0
5354,2186.0
5355,2158.0
5356,2105.0
5357,2057.0
5358,2013.0
5359,1963.0
5360,1914.0
5361,1898.0
5362,1904.0
5363,1939.0
5364,1993.0
5365,2054.0
5366,2103.0
5367,2134.0
5368,2186.0
5369,2206.0
5370,2203.0
5371,2170.0
5372,2112.0
5373,2053.0
5374,1978.0
5375,1920.0
5376,1856.0
5377,1806.0
5378,1785.0
5379,1809.0
5380,1857.0
5381,1925.0
5382,1985.0
5383,2055.0
5384,2111.0
5385,2156.0
5386,2179.0
5387,2174.0
5388,2134.0
5389,2071.0
5390,1994.0
5391,1926.0
5392,1856.0
5393,1794.0
5394,1744.0
5395,1735.0
5396,1763.0
5397,1808.0
5398,1878.0
5399,1932.0
5400,1984.0
5401,2045.0
5402,2103.0
5403,2128.0
5404,2118.0
5405,2080.0
5406,2018.0
5407,1958.0
5408,1901.0
5409,1845.0
5410,1795.0
5411,1773.0
5412,1781.0
5413,1829.0
5414,1888.0
5415,1941.0
5416,2003.0
5417,2065.0
5418,2129.0
5419,2182.0
5420,2190.0
5421,2163.0
5422,2113.0
5423,2047.0
5424,1983.0
5425,1920.0
5426,1859.0
5427,1799.0
5428,1785.0
5429,1808.0
5430,1838.0
5431,1893.0
5432,1946.0
5433,2011.0
5434,2070.0
5435,2125.0
5436,2162.0
5437,2165.0
5438,2133.0
5439,2082.0
5440,2015.0
5441,1958.0
5442,1895.0
5443,1845.0
5444,1808.0
5445,1808.0
5446,1839.0
5447,1884.0
5448,1949.0
5449,2001.0
5450,2063.0
5451,2114.0
5452,2160.0
5453,2182.0
5454,2175.0
5455,2139.0
5456,2085.0
5457,2020.0
5458,1963.0
5459,1904.0
5460,1843.0
5461,1818.0
5462,1819.0
5463,1857.0
5464,1914.0
5465,1969.0
5466,2028.0
5467,2086.0
5468,2135.0
5469,2183.0
5470,2205.0
5471,2199.0
5472,2161.0
5473,2115.0
5474,2064.0
5475,2012.0
5476,1963.0
5477,1920.0
5478,1915.0
5479,1931.0
5480,1979.0
5481,2031.0
5482,2090.0
5483,2144.0
5484,2189.0
5485,2227.0
5486,2247.0
5487,2239.0
5488,2198.0
5489,2148.0
5490,2081.0
5491,2023.0
5492,1969.0
5493,1922.0
5494,1889.0
5495,1899.0
5496,1937.0
5497,1997.0
5498,2075.0
5499,2139.0
5500,2203.0
5501,2261.0
5502,2315.0
5503,2336.0
5504,2335.0
5505,2295.0
5506,2243.0
5507,2181.0
5508,2125.0
5509,2061.0
5510,1988.0
5511,1959.0
5512,1969.0
5513,2000.0
5514,2055.0
5515,2109.0
5516,2160.0
5517,2218.0
5518,2267.0
5519,2311.0
5520,2326.0
5521,2306.0
5522,2270.0
5523,2219.0
5524,2162.0
5525,2100.0
5526,2029.0
5527,1968.0
5528,1942.0
5529,1949.0
5530,1984.0
5531,2032.0
5532,2095.0
5533,2141.0
5534,2189.0
5535,2237.0
5536,2275.0
5537,2275.0
5538,2251.0
5539,2203.0
5540,2150.0
5541,2096.0
5542,2035.0
5543,1976.0
5544,1939.0
5545,1938.0
5546,1968.0
5547,2014.0
5548,2067.0
5549,2119.0
5550,2161.0
5551,2204.0
5552,2233.0
5553,2243.0
5554,2223.0
5555,2178.0
5556,2113.0
5557,2052.0
5558,1981.0
5559,1917.0
5560,1853.0
5561,1809.0
5562,1808.0
5563,1827.0
5564,1865.0
5565,1913.0
5566,1968.0
5567,2008.0
5568,2073.0
5569,2123.0
5570,2130.0
5571,2109.0
5572,2058.0
5573,1983.0
5574,1913.0
5575,1839.0
5576,1759.0
5577,1695.0
5578,1655.0
5579,1664.0
5580,1690.0
5581,1739.0
5582,1807.0
5583,1859.0
5584,1920.0
5585,1974.0
5586,2016.0
5587,2026.0
5588,2009.0
5589,1967.0
5590,1905.0
5591,1835.0
5592,1775.0
5593,1702.0
5594,1648.0
5595,1636.0
5596,1650.0
5597,1694.0
5598,1744.0
5599,1807.0
5600,1853.0
5601,1903.0
5602,1952.0
5603,1970.0
5604,1963.0
5605,1920.0
5606,1863.0
5607,1797.0
5608,1735.0
5609,1671.0
5610,1616.0
5611,1587.0
5612,1591.0
5613,1623.0
5614,1674.0
5615,1735.0
5616,1799.0
5617,1857.0
5618,1918.0
5619,1965.0
5620,1982.0
5621,1966.0
5622,1920.0
5623,1872.0
5624,1820.0
5625,1763.0
5626,1695.0
5627,1646.0
5628,1610.0
5629,1623.0
5630,1653.0
5631,1701.0
5632,1753.0
5633,1798.0
5634,1851.0
5635,1905.0
5636,1947.0
5637,1955.0
5638,1936.0
5639,1901.0
5640,1855.0
5641,1808.0
5642,1761.0
5643,1711.0
5644,1680.0
5645,1677.0
5646,1707.0
5647,1763.0
5648,1818.0
5649,1877.0
5650,1934.0
5651,1982.0
5652,2022.0
5653,2032.0
5654,2016.0
5655,1971.0
5656,1920.0
5657,1865.0
5658,1803.0
5659,1744.0
5660,1686.0
5661,1663.0
5662,1667.0
5663,1710.0
5664,1769.0
5665,1833.0
5666,1881.0
5667,1931.0
5668,1977.0
5669,2030.0
5670,2041.0
5671,2029.0
5672,1985.0
5673,1926.0
5674,1869.0
5675,1809.0
5676,1749.0
5677,1694.0
5678,1674.0
5679,1680.0
