,mV
0,
1,4095
2,4038
3,3916
4,3781
5,3664
6,3543
7,3474
8,3425
9,3409
10,3417
11,3440
12,3470
13,3489
14,3535
15,3606
16,3650
17,3666
18,3653
19,3601
20,3551
21,3480
22,3411
23,3332
24,3270
25,3237
26,3222
27,3227
28,3239
29,3247
30,3251
31,3265
32,3284
33,3284
34,3248
35,3198
36,3135
37,3069
38,3022
39,2977
40,2929
41,2913
42,2928
43,2976
44,3027
45,3084
46,3121
47,3152
48,3185
49,3201
50,3191
51,3152
52,3100
53,3030
54,2960
55,2890
56,2814
57,2746
58,2704
59,2693
60,2697
61,2710
62,2734
63,2759
64,2794
65,2832
66,2855
67,2850
68,2819
69,2762
70,2705
71,2655
72,2607
73,2543
74,2497
75,2481
76,2487
77,2517
78,2559
79,2608
80,2640
81,2673
82,2693
83,2690
84,2665
85,2625
86,2582
87,2537
88,2495
89,2438
90,2381
91,2343
92,2335
93,2343
94,2368
95,2408
96,2446
97,2477
98,2515
99,2539
100,2543
101,2517
102,2477
103,2421
104,2368
105,2304
106,2231
107,2165
108,2137
109,2129
110,2159
111,2199
112,2247
113,2289
114,2347
115,2397
116,2431
117,2435
118,2413
119,2369
120,2326
121,2286
122,2236
123,2181
124,2143
125,2133
126,2153
127,2182
128,2223
129,2262
130,2295
131,2329
132,2359
133,2370
134,2359
135,2318
136,2262
137,2197
138,2131
139,2065
140,1993
141,1949
142,1935
143,1942
144,1968
145,2016
146,2074
147,2129
148,2181
149,2224
150,2235
151,2221
152,2178
153,2131
154,2080
155,2019
156,1963
157,1919
158,1898
159,1903
160,1921
161,1957
162,1998
163,2043
164,2095
165,2147
166,2186
167,2197
168,2182
169,2137
170,2081
171,2009
172,1942
173,1861
174,1808
175,1777
176,1776
177,1667
178,1655
179,1670
180,1715
181,1771
182,1831
183,1872
184,1906
185,1943
186,1969
187,1977
188,1957
189,1922
190,1881
191,1840
192,1795
193,1741
194,1694
195,1685
196,1697
197,1721
198,1775
199,1805
200,1843
201,1886
202,1924
203,1945
204,1936
205,1909
206,1877
207,1839
208,1794
209,1735
210,1680
211,1645
212,1639
213,1662
214,1694
215,1739
216,1779
217,1824
218,1879
219,1919
220,1938
221,1933
222,1910
223,1873
224,1839
225,1797
226,1739
227,1690
228,1674
229,1670
230,1706
231,1740
232,1774
233,1808
234,1841
235,1879
236,1893
237,1894
238,1877
239,1849
240,1810
241,1776
242,1719
243,1666
244,1628
245,1616
246,1622
247,1653
248,1706
249,1755
250,1815
251,1875
252,1934
253,1961
254,1954
255,1924
256,1879
257,1835
258,1789
259,1728
260,1673
261,1632
262,1632
263,1653
264,1694
265,1744
266,1788
267,1839
268,1885
269,1909
270,1904
271,1873
272,1830
273,1777
274,1719
275,1677
276,1631
277,1603
278,1613
279,1641
280,1687
281,1731
282,1777
283,1808
284,1842
285,1872
286,1891
287,1872
288,1830
289,1776
290,1718
291,1679
292,1634
293,1585
294,1562
295,1562
296,1590
297,1631
298,1681
299,1731
300,1776
301,1829
302,1874
303,1903
304,1904
305,1881
306,1846
307,1799
308,1761
309,1705
310,1647
311,1616
312,1625
313,1669
314,1718
315,1763
316,1804
317,1829
318,1867
319,1889
320,1882
321,1846
322,1799
323,1744
324,1687
325,1631
326,1572
327,1520
328,1505
329,1532
330,1585
331,1663
332,1729
333,1807
334,1862
335,1909
336,1931
337,1918
338,1875
339,1820
340,1755
341,1704
342,1649
343,1607
344,1581
345,1594
346,1633
347,1680
348,1733
349,1776
350,1808
351,1847
352,1874
353,1890
354,1872
355,1834
356,1786
357,1730
358,1665
359,1595
360,1522
361,1493
362,1493
363,1522
364,1584
365,1648
366,1709
367,1761
368,1828
369,1867
370,1876
371,1858
372,1810
373,1759
374,1711
375,1664
376,1615
377,1575
378,1565
379,1585
380,1626
381,1672
382,1713
383,1755
384,1786
385,1814
386,1827
387,1806
388,1769
389,1701
390,1634
391,1584
392,1535
393,1504
394,1491
395,1520
396,1569
397,1630
398,1693
399,1751
400,1805
401,1862
402,1903
403,1934
404,1921
405,1894
406,1849
407,1802
408,1755
409,1695
410,1627
411,1593
412,1567
413,1569
414,1584
415,1609
416,1642
417,1680
418,1743
419,1779
420,1805
421,1808
422,1791
423,1778
424,1767
425,1749
426,1722
427,1680
428,1677
429,1674
430,1695
431,1728
432,1761
433,1793
434,1825
435,1867
436,1897
437,1905
438,1886
439,1861
440,1840
441,1813
442,1784
443,1753
444,1723
445,1719
446,1733
447,1759
448,1788
449,1808
450,1836
451,1870
452,1902
453,1910
454,1898
455,1859
456,1814
457,1776
458,1738
459,1692
460,1649
461,1638
462,1646
463,1695
464,1740
465,1786
466,1825
467,1862
468,1899
469,1924
470,1924
471,1903
472,1847
473,1802
474,1745
475,1707
476,1654
477,1600
478,1585
479,1591
480,1625
481,1664
482,1706
483,1739
484,1772
485,1810
486,1827
487,1822
488,1791
489,1749
490,1707
491,1663
492,1624
493,1580
494,1543
495,1527
496,1535
497,1573
498,1615
499,1648
500,1683
501,1728
502,1767
503,1787
504,1781
505,1747
506,1697
507,1631
508,1574
509,1500
510,1440
511,1419
512,1431
513,1482
514,1553
515,1616
516,1691
517,1765
518,1837
519,1885
520,1914
521,1901
522,1872
523,1818
524,1765
525,1705
526,1639
527,1583
528,1555
529,1557
530,1578
531,1609
532,1643
533,1673
534,1699
535,1742
536,1765
537,1770
538,1759
539,1729
540,1705
541,1675
542,1634
543,1583
544,1532
545,1518
546,1523
547,1565
548,1604
549,1651
550,1681
551,1714
552,1751
553,1774
554,1773
555,1749
556,1724
557,1694
558,1670
559,1639
560,1610
561,1603
562,1623
563,1653
564,1703
565,1745
566,1787
567,1814
568,1860
569,1882
570,1889
571,1872
572,1840
573,1792
574,1737
575,1677
576,1611
577,1558
578,1526
579,1535
580,1574
581,1617
582,1669
583,1723
584,1783
585,1844
586,1889
587,1905
588,1889
589,1853
590,1806
591,1754
592,1705
593,1654
594,1622
595,1627
596,1651
597,1697
598,1739
599,1775
600,1808
601,1843
602,1886
603,1907
604,1906
605,1897
606,1878
607,1857
608,1844
609,1827
610,1812
611,1825
612,1856
613,1911
614,1985
615,2069
616,2161
617,2262
618,2381
619,2481
620,2569
621,2621
622,2649
623,2663
624,2682
625,2706
626,2736
627,2790
628,2877
629,2996
630,3147
631,3291
632,3434
633,3558
634,3677
635,3758
636,3760
637,3661
638,3521
639,3312
640,3088
641,2850
642,2606
643,2345
644,2109
645,1911
646,1753
647,1640
648,1552
649,1488
650,1444
651,1429
652,1434
653,1442
654,1441
655,1439
656,1429
657,1424
658,1425
659,1429
660,1431
661,1453
662,1499
663,1554
664,1610
665,1654
666,1696
667,1738
668,1776
669,1808
670,1827
671,1824
672,1810
673,1786
674,1754
675,1715
676,1664
677,1623
678,1600
679,1598
680,1619
681,1659
682,1698
683,1737
684,1783
685,1833
686,1861
687,1870
688,1851
689,1824
690,1803
691,1777
692,1758
693,1713
694,1689
695,1682
696,1696
697,1719
698,1747
699,1776
700,1797
701,1825
702,1843
703,1844
704,1826
705,1801
706,1763
707,1743
708,1719
709,1691
710,1663
711,1648
712,1653
713,1675
714,1700
715,1730
716,1756
717,1780
718,1819
719,1850
720,1861
721,1851
722,1828
723,1790
724,1753
725,1723
726,1686
727,1666
728,1669
729,1690
730,1731
731,1778
732,1815
733,1850
734,1886
735,1923
736,1936
737,1934
738,1899
739,1849
740,1801
741,1748
742,1707
743,1650
744,1619
745,1616
746,1633
747,1675
748,1719
749,1759
750,1791
751,1823
752,1848
753,1856
754,1842
755,1806
756,1758
757,1709
758,1663
759,1612
760,1564
761,1532
762,1531
763,1568
764,1600
765,1650
766,1707
767,1775
768,1851
769,1914
770,1965
771,1979
772,1979
773,1956
774,1925
775,1885
776,1833
777,1787
778,1755
779,1751
780,1775
781,1807
782,1844
783,1882
784,1920
785,1964
786,1984
787,1982
788,1963
789,1924
790,1875
791,1830
792,1781
793,1728
794,1689
795,1683
796,1709
797,1751
798,1796
799,1838
800,1884
801,1927
802,1966
803,1984
804,1969
805,1931
806,1878
807,1835
808,1779
809,1728
810,1680
811,1653
812,1659
813,1691
814,1744
815,1806
816,1866
817,1929
818,1984
819,2019
820,2042
821,2032
822,2000
823,1962
824,1919
825,1875
826,1823
827,1787
828,1782
829,1813
830,1867
831,1926
832,1979
833,2023
834,2070
835,2117
836,2134
837,2128
838,2095
839,2041
840,1992
841,1945
842,1898
843,1843
844,1807
845,1804
846,1817
847,1846
848,1880
849,1906
850,1936
851,1975
852,2023
853,2047
854,2057
855,2043
856,2025
857,1999
858,1968
859,1936
860,1901
861,1888
862,1899
863,1927
864,1968
865,2002
866,2034
867,2076
868,2116
869,2143
870,2154
871,2138
872,2110
873,2065
874,2027
875,1977
876,1921
877,1872
878,1854
879,1865
880,1886
881,1930
882,1971
883,2006
884,2063
885,2096
886,2119
887,2108
888,2083
889,2030
890,1996
891,1958
892,1910
893,1862
894,1822
895,1808
896,1808
897,1828
898,1857
899,1887
900,1919
901,1955
902,1987
903,1998
904,1977
905,1938
906,1885
907,1824
908,1770
909,1699
910,1635
911,1601
912,1593
913,1613
914,1641
915,1677
916,1585
917,1573
918,1590
919,1618
920,1653
921,1686
922,1717
923,1742
924,1775
925,1801
926,1815
927,1809
928,1790
929,1759
930,1721
931,1692
932,1645
933,1601
934,1575
935,1575
936,1590
937,1608
938,1626
939,1643
940,1664
941,1696
942,1725
943,1749
944,1758
945,1751
946,1742
947,1716
948,1698
949,1669
950,1650
951,1655
952,1680
953,1710
954,1737
955,1760
956,1782
957,1808
958,1831
959,1839
960,1837
961,1815
962,1781
963,1750
964,1717
965,1668
966,1617
967,1579
968,1565
969,1574
970,1602
971,1646
972,1687
973,1732
974,1786
975,1836
976,1863
977,1859
978,1840
979,1817
980,1781
981,1751
982,1712
983,1682
984,1680
985,1700
986,1728
987,1767
988,1807
989,1840
990,1877
991,1917
992,1946
993,1955
994,1937
995,1904
996,1870
997,1825
998,1789
999,1739
1000,1694
1001,1680
1002,1680
1003,1701
1004,1739
1005,1776
1006,1823
1007,1865
1008,1914
1009,1943
1010,1951
1011,1931
1012,1881
1013,1827
1014,1770
1015,1707
1016,1640
1017,1593
1018,1585
1019,1600
1020,1626
1021,1664
1022,1702
1023,1756
1024,1826
1025,1903
1026,1967
1027,1991
1028,2005
1029,1999
1030,1982
1031,1951
1032,1909
1033,1861
1034,1833
1035,1822
1036,1835
1037,1851
1038,1883
1039,1908
1040,1935
1041,1969
1042,1987
1043,1984
1044,1965
1045,1919
1046,1879
1047,1851
1048,1812
1049,1777
1050,1744
1051,1744
1052,1754
1053,1787
1054,1825
1055,1867
1056,1906
1057,1941
1058,1984
1059,2012
1060,2026
1061,2019
1062,1990
1063,1962
1064,1925
1065,1889
1066,1840
1067,1803
1068,1793
1069,1804
1070,1826
1071,1856
1072,1885
1073,1918
1074,1958
1075,1997
1076,2017
1077,2013
1078,1974
1079,1931
1080,1879
1081,1837
1082,1783
1083,1737
1084,1721
1085,1738
1086,1779
1087,1835
1088,1897
1089,1948
1090,2005
1091,2066
1092,2107
1093,2112
1094,2095
1095,2035
1096,1986
1097,1925
1098,1872
1099,1791
1100,1733
1101,1703
1102,1710
1103,1744
1104,1786
1105,1840
1106,1884
1107,1942
1108,1999
1109,2032
1110,2062
1111,2056
1112,2030
1113,1997
1114,1967
1115,1926
1116,1875
1117,1841
1118,1825
1119,1827
1120,1853
1121,1885
1122,1923
1123,1963
1124,2015
1125,2071
1126,2102
1127,2105
1128,2078
1129,2026
1130,1967
1131,1906
1132,1840
1133,1786
1134,1753
1135,1747
1136,1774
1137,1820
1138,1879
1139,1938
1140,1996
1141,2061
1142,2105
1143,2124
1144,2109
1145,2076
1146,2029
1147,1978
1148,1931
1149,1872
1150,1827
1151,1810
1152,1826
1153,1863
1154,1905
1155,1956
1156,1995
1157,2042
1158,2095
1159,2123
1160,2133
1161,2114
1162,2073
1163,2031
1164,1985
1165,1941
1166,1891
1167,1867
1168,1854
1169,1863
1170,1885
1171,1913
1172,1937
1173,1968
1174,2014
1175,2071
1176,2100
1177,2098
1178,2079
1179,2046
1180,2000
1181,1957
1182,1904
1183,1850
1184,1822
1185,1822
1186,1855
1187,1898
1188,1946
1189,1987
1190,2033
1191,2091
1192,2128
1193,2145
1194,2129
1195,2102
1196,2063
1197,2015
1198,1969
1199,1922
1200,1886
1201,1879
1202,1900
1203,1925
1204,1953
1205,1984
1206,2012
1207,2047
1208,2097
1209,2118
1210,2128
1211,2114
1212,2091
1213,2061
1214,2014
1215,1975
1216,1933
1217,1920
1218,1917
1219,1939
1220,1982
1221,2023
1222,2070
1223,2099
1224,2128
1225,2166
1226,2169
1227,2150
1228,2110
1229,2061
1230,2002
1231,1957
1232,1913
1233,1874
1234,1872
1235,1903
1236,1957
1237,2028
1238,2093
1239,2160
1240,2208
1241,2256
1242,2291
1243,2293
1244,2268
1245,2213
1246,2159
1247,2105
1248,2059
1249,2000
1250,1968
1251,1958
1252,1968
1253,2010
1254,2055
1255,2095
1256,2125
1257,2164
1258,2206
1259,2229
1260,2225
1261,2197
1262,2150
1263,2106
1264,2064
1265,2012
1266,1968
1267,1932
1268,1932
1269,1942
1270,1975
1271,2013
1272,2061
1273,2100
1274,2158
1275,2199
1276,2230
1277,2243
1278,2226
1279,2195
1280,2177
1281,2159
1282,2126
1283,2077
1284,2069
1285,2075
1286,2102
1287,2129
1288,2155
1289,2173
1290,2192
1291,2223
1292,2233
1293,2237
1294,2218
1295,2183
1296,2147
1297,2112
1298,2080
1299,2033
1300,1997
1301,1990
1302,2011
1303,2056
1304,2109
1305,2160
1306,2210
1307,2257
1308,2320
1309,2352
1310,2368
1311,2363
1312,2344
1313,2309
1314,2301
1315,2276
1316,2242
1317,2222
1318,2224
1319,2237
1320,2261
1321,2299
1322,2346
1323,2369
1324,2421
1325,2450
1326,2465
1327,2448
1328,2419
1329,2372
1330,2326
1331,2286
1332,2247
1333,2207
1334,2213
1335,2229
1336,2272
1337,2326
1338,2375
1339,2413
1340,2448
1341,2480
1342,2491
1343,2471
1344,2433
1345,2379
1346,2321
1347,2266
1348,2225
1349,2176
1350,2153
1351,2161
1352,2208
1353,2263
1354,2341
1355,2398
1356,2447
1357,2486
1358,2522
1359,2537
1360,2515
1361,2480
1362,2418
1363,2353
1364,2288
1365,2219
1366,2145
1367,2096
1368,2077
1369,2077
1370,2096
1371,2123
1372,2155
1373,2183
1374,2225
1375,2267
1376,2293
1377,2307
1378,2291
1379,2285
1380,2256
1381,2229
1382,2190
1383,2143
1384,2121
1385,2118
1386,2139
1387,2164
1388,2198
1389,2224
1390,2256
1391,2294
1392,2320
1393,2318
1394,2289
1395,2249
1396,2197
1397,2151
1398,2096
1399,2047
1400,2003
1401,1997
1402,2010
1403,2064
1404,2125
1405,2192
1406,2247
1407,2311
1408,2351
1409,2391
1410,2390
1411,2366
1412,2322
1413,2273
1414,2231
1415,2185
1416,2131
1417,2096
1418,2078
1419,2086
1420,2099
1421,2137
1422,2178
1423,2224
1424,2271
1425,2311
1426,2322
1427,2317
1428,2274
1429,2230
1430,2192
1431,2158
1432,2120
1433,2096
1434,2098
1435,2129
1436,2174
1437,2224
1438,2185
1439,2164
1440,2189
1441,2202
1442,2234
1443,2258
1444,2290
1445,2328
1446,2357
1447,2371
1448,2366
1449,2337
1450,2306
1451,2273
1452,2244
1453,2207
1454,2170
1455,2164
1456,2176
1457,2221
1458,2278
1459,2339
1460,2415
1461,2495
1462,2598
1463,2691
1464,2761
1465,2816
1466,2848
1467,2867
1468,2893
1469,2925
1470,2945
1471,2981
1472,3046
1473,3142
1474,3255
1475,3419
1476,3600
1477,3796
1478,4048
1479,4095
1480,4095
1481,4095
1482,4095
1483,4095
1484,4095
1485,4095
1486,4095
1487,4095
1488,4095
1489,4095
1490,3987
1491,3819
1492,3635
1493,3423
1494,3245
1495,3086
1496,2928
1497,2778
1498,2622
1499,2462
1500,2317
1501,2179
1502,2061
1503,1951
1504,1863
1505,1830
1506,1830
1507,1877
1508,1949
1509,2021
1510,2105
1511,2183
1512,2268
1513,2330
1514,2363
1515,2361
1516,2342
1517,2314
1518,2274
1519,2238
1520,2189
1521,2143
1522,2135
1523,2158
1524,2191
1525,2242
1526,2288
1527,2329
1528,2368
1529,2397
1530,2424
1531,2432
1532,2412
1533,2386
1534,2349
1535,2320
1536,2288
1537,2245
1538,2214
1539,2195
1540,2211
1541,2240
1542,2282
1543,2315
1544,2350
1545,2386
1546,2418
1547,2423
1548,2404
1549,2362
1550,2307
1551,2256
1552,2220
1553,2179
1554,2144
1555,2129
1556,2135
1557,2157
1558,2181
1559,2208
1560,2231
1561,2251
1562,2261
1563,2257
1564,2233
1565,2186
1566,2130
1567,2095
1568,2067
1569,2057
1570,2057
1571,2066
1572,2106
1573,2161
1574,2229
1575,2290
1576,2349
1577,2394
1578,2443
1579,2485
1580,2507
1581,2496
1582,2457
1583,2411
1584,2333
1585,2274
1586,2209
1587,2138
1588,2095
1589,2079
1590,2093
1591,2123
1592,2161
1593,2206
1594,2245
1595,2286
1596,2311
1597,2306
1598,2279
1599,2224
1600,2176
1601,2133
1602,2103
1603,2076
1604,2047
1605,2045
1606,2064
1607,2095
1608,2128
1609,2160
1610,2190
1611,2220
1612,2256
1613,2285
1614,2299
1615,2295
1616,2287
1617,2271
1618,2245
1619,2222
1620,2171
1621,2128
1622,2114
1623,2115
1624,2134
1625,2170
1626,2206
1627,2243
1628,2288
1629,2333
1630,2363
1631,2369
1632,2347
1633,2306
1634,2256
1635,2207
1636,2159
1637,2103
1638,2068
1639,2076
1640,2095
1641,2139
1642,2191
1643,2237
1644,2281
1645,2321
1646,2349
1647,2346
1648,2317
1649,2263
1650,2195
1651,2129
1652,2064
1653,1993
1654,1935
1655,1919
1656,1951
1657,2015
1658,2103
1659,2199
1660,2288
1661,2369
1662,2442
1663,2487
1664,2499
1665,2482
1666,2437
1667,2384
1668,2334
1669,2288
1670,2233
1671,2198
1672,2192
1673,2203
1674,2234
1675,2282
1676,2329
1677,2373
1678,2417
1679,2450
1680,2463
1681,2450
1682,2422
1683,2383
1684,2341
1685,2302
1686,2258
1687,2201
1688,2162
1689,2150
1690,2160
1691,2183
1692,2218
1693,2247
1694,2274
1695,2321
1696,2364
1697,2399
1698,2411
1699,2404
1700,2389
1701,2371
1702,2352
1703,2323
1704,2289
1705,2274
1706,2275
1707,2290
1708,2319
1709,2346
1710,2362
1711,2377
1712,2407
1713,2429
1714,2437
1715,2422
1716,2392
1717,2359
1718,2321
1719,2288
1720,2240
1721,2197
1722,2183
1723,2192
1724,2219
1725,2250
1726,2279
1727,2308
1728,2350
1729,2385
1730,2416
1731,2419
1732,2395
1733,2357
1734,2315
1735,2267
1736,2216
1737,2167
1738,2133
1739,2133
1740,2156
1741,2192
1742,2241
1743,2289
1744,2339
1745,2384
1746,2414
1747,2415
1748,2386
1749,2340
1750,2277
1751,2211
1752,2150
1753,2082
1754,2010
1755,1970
1756,1966
1757,1979
1758,2000
1759,2024
1760,2047
1761,2075
1762,2111
1763,2128
1764,2124
1765,2098
1766,2064
1767,2021
1768,1989
1769,1952
1770,1919
1771,1894
1772,1884
1773,1897
1774,1933
1775,1974
1776,2003
1777,2032
1778,2070
1779,2094
1780,2099
1781,2093
1782,2047
1783,1996
1784,1932
1785,1870
1786,1798
1787,1727
1788,1680
1789,1675
1790,1691
1791,1727
1792,1775
1793,1811
1794,1865
1795,1906
1796,1959
1797,1986
1798,1986
1799,1971
1800,1946
1801,1909
1802,1869
1803,1811
1804,1761
1805,1728
1806,1725
1807,1744
1808,1781
1809,1831
1810,1872
1811,1908
1812,1945
1813,1967
1814,1959
1815,1926
1816,1871
1817,1814
1818,1763
1819,1718
1820,1657
1821,1609
1822,1591
1823,1600
1824,1643
1825,1701
1826,1767
1827,1829
1828,1889
1829,1947
1830,1983
1831,1984
1832,1958
1833,1904
1834,1841
1835,1782
1836,1728
1837,1680
1838,1667
1839,1686
1840,1728
1841,1780
1842,1837
1843,1878
1844,1916
1845,1955
1846,1984
1847,1986
1848,1963
1849,1919
1850,1858
1851,1803
1852,1754
1853,1697
1854,1654
1855,1638
1856,1650
1857,1689
1858,1748
1859,1808
1860,1865
1861,1925
1862,1978
1863,2000
1864,2003
1865,1974
1866,1919
1867,1869
1868,1810
1869,1764
1870,1709
1871,1670
1872,1670
1873,1694
1874,1737
1875,1784
1876,1834
1877,1867
1878,1909
1879,1958
1880,1985
1881,1987
1882,1973
1883,1940
1884,1906
1885,1871
1886,1824
1887,1776
1888,1731
1889,1723
1890,1739
1891,1761
1892,1795
1893,1826
1894,1856
1895,1893
1896,1925
1897,1937
1898,1925
1899,1903
1900,1861
1901,1828
1902,1798
1903,1764
1904,1731
1905,1723
1906,1743
1907,1782
1908,1840
1909,1894
1910,1934
1911,1966
1912,1991
1913,2009
1914,1995
1915,1952
1916,1891
1917,1830
1918,1776
1919,1728
1920,1678
1921,1636
1922,1618
1923,1633
1924,1664
1925,1715
1926,1778
1927,1842
1928,1910
1929,1984
1930,2031
1931,2055
1932,2032
1933,2000
1934,1951
1935,1898
1936,1830
1937,1755
1938,1693
1939,1666
1940,1666
1941,1682
1942,1719
1943,1765
1944,1811
1945,1863
1946,1909
1947,1937
1948,1939
1949,1927
1950,1891
1951,1847
1952,1801
1953,1744
1954,1691
1955,1659
1956,1663
1957,1683
1958,1719
1959,1757
1960,1794
1961,1835
1962,1877
1963,1916
1964,1925
1965,1915
1966,1872
1967,1812
1968,1749
1969,1689
1970,1633
1971,1595
1972,1599
1973,1638
1974,1700
1975,1775
1976,1851
1977,1919
1978,1975
1979,2025
1980,2043
1981,2036
1982,2006
1983,1961
1984,1900
1985,1831
1986,1759
1987,1685
1988,1631
1989,1606
1990,1608
1991,1626
1992,1655
1993,1690
1994,1734
1995,1778
1996,1829
1997,1857
1998,1869
1999,1859
2000,1840
2001,1815
2002,1794
2003,1759
2004,1721
2005,1701
2006,1711
2007,1730
2008,1763
2009,1805
2010,1840
2011,1877
2012,1923
2013,1951
2014,1955
2015,1920
2016,1867
2017,1804
2018,1743
2019,1690
2020,1638
2021,1603
2022,1600
2023,1640
2024,1691
2025,1755
2026,1818
2027,1877
2028,1937
2029,1985
2030,2012
2031,2000
2032,1967
2033,1904
2034,1840
2035,1776
2036,1717
2037,1648
2038,1600
2039,1591
2040,1601
2041,1635
2042,1673
2043,1713
2044,1759
2045,1808
2046,1856
2047,1879
2048,1883
2049,1864
2050,1835
2051,1802
2052,1765
2053,1721
2054,1674
2055,1646
2056,1638
2057,1643
2058,1662
2059,1686
2060,1718
2061,1747
2062,1791
2063,1819
2064,1840
2065,1843
2066,1834
2067,1812
2068,1791
2069,1768
2070,1737
2071,1712
2072,1707
2073,1719
2074,1745
2075,1766
2076,1786
2077,1807
2078,1815
2079,1843
2080,1857
2081,1858
2082,1844
2083,1827
2084,1799
2085,1773
2086,1737
2087,1699
2088,1671
2089,1674
2090,1702
2091,1744
2092,1789
2093,1829
2094,1865
2095,1903
2096,1923
2097,1923
2098,1902
2099,1861
2100,1807
2101,1753
2102,1711
2103,1657
2104,1611
2105,1589
2106,1598
2107,1633
2108,1686
2109,1747
2110,1808
2111,1876
2112,1949
2113,1999
2114,2018
2115,2001
2116,1974
2117,1926
2118,1875
2119,1824
2120,1771
2121,1723
2122,1700
2123,1703
2124,1721
2125,1751
2126,1786
2127,1809
2128,1841
2129,1870
2130,1887
2131,1889
2132,1866
2133,1833
2134,1792
2135,1756
2136,1715
2137,1675
2138,1651
2139,1655
2140,1681
2141,1728
2142,1782
2143,1830
2144,1870
2145,1900
2146,1923
2147,1927
2148,1914
2149,1887
2150,1838
2151,1793
2152,1744
2153,1695
2154,1647
2155,1631
2156,1647
2157,1680
2158,1726
2159,1769
2160,1807
2161,1838
2162,1871
2163,1891
2164,1897
2165,1873
2166,1843
2167,1794
2168,1744
2169,1691
2170,1631
2171,1582
2172,1555
2173,1561
2174,1595
2175,1642
2176,1665
2177,1717
2178,1766
2179,1814
2180,1860
2181,1920
2182,1961
2183,1983
2184,1970
2185,1945
2186,1909
2187,1866
2188,1819
2189,1761
2190,1721
2191,1712
2192,1737
2193,1777
2194,1830
2195,1879
2196,1928
2197,1979
2198,2017
2199,2039
2200,2037
2201,2013
2202,1975
2203,1951
2204,1930
2205,1898
2206,1854
2207,1826
2208,1822
2209,1836
2210,1850
2211,1863
2212,1875
2213,1893
2214,1923
2215,1952
2216,1969
2217,1970
2218,1951
2219,1929
2220,1897
2221,1863
2222,1823
2223,1779
2224,1750
2225,1750
2226,1760
2227,1781
2228,1811
2229,1843
2230,1881
2231,1925
2232,1952
2233,1958
2234,1925
2235,1872
2236,1810
2237,1755
2238,1701
2239,1633
2240,1584
2241,1565
2242,1578
2243,1616
2244,1661
2245,1717
2246,1765
2247,1813
2248,1860
2249,1883
2250,1878
2251,1858
2252,1821
2253,1782
2254,1741
2255,1689
2256,1636
2257,1597
2258,1585
2259,1588
2260,1619
2261,1655
2262,1686
2263,1719
2264,1760
2265,1789
2266,1808
2267,1802
2268,1780
2269,1744
2270,1706
2271,1669
2272,1616
2273,1562
2274,1550
2275,1566
2276,1601
2277,1659
2278,1712
2279,1765
2280,1811
2281,1858
2282,1888
2283,1902
2284,1887
2285,1856
2286,1811
2287,1776
2288,1737
2289,1685
2290,1648
2291,1638
2292,1651
2293,1686
2294,1728
2295,1765
2296,1798
2297,1827
2298,1857
2299,1871
2300,1856
2301,1819
2302,1765
2303,1712
2304,1649
2305,1595
2306,1535
2307,1507
2308,1511
2309,1549
2310,1598
2311,1657
2312,1715
2313,1769
2314,1826
2315,1877
2316,1910
2317,1921
2318,1913
2319,1887
2320,1866
2321,1829
2322,1782
2323,1729
2324,1695
2325,1683
2326,1708
2327,1743
2328,1777
2329,1809
2330,1840
2331,1865
2332,1891
2333,1889
2334,1865
2335,1826
2336,1777
2337,1734
2338,1693
2339,1652
2340,1619
2341,1616
2342,1636
2343,1669
2344,1707
2345,1739
2346,1757
2347,1776
2348,1799
2349,1810
2350,1810
2351,1804
2352,1802
2353,1795
2354,1808
2355,1806
2356,1798
2357,1808
2358,1841
2359,1893
2360,1974
2361,2068
2362,2165
2363,2261
2364,2359
2365,2451
2366,2526
2367,2572
2368,2595
2369,2601
2370,2610
2371,2630
2372,2655
2373,2693
2374,2773
2375,2886
2376,3024
2377,3179
2378,3335
2379,3477
2380,3632
2381,3760
2382,3856
2383,3879
2384,3787
2385,3655
2386,3531
2387,3363
2388,3184
2389,2966
2390,2747
2391,2541
2392,2352
2393,2192
2394,2043
2395,1914
2396,1801
2397,1714
2398,1655
2399,1597
2400,1535
2401,1472
2402,1414
2403,1363
2404,1345
2405,1335
2406,1330
2407,1348
2408,1394
2409,1463
2410,1552
2411,1646
2412,1727
2413,1808
2414,1888
2415,1954
2416,1991
2417,1992
2418,1963
2419,1906
2420,1847
2421,1785
2422,1719
2423,1663
2424,1622
2425,1614
2426,1621
2427,1660
2428,1712
2429,1758
2430,1802
2431,1850
2432,1899
2433,1920
2434,1920
2435,1906
2436,1887
2437,1860
2438,1831
2439,1786
2440,1741
2441,1715
2442,1709
2443,1713
2444,1731
2445,1757
2446,1790
2447,1823
2448,1863
2449,1895
2450,1904
2451,1888
2452,1867
2453,1838
2454,1808
2455,1775
2456,1725
2457,1698
2458,1699
2459,1718
2460,1747
2461,1789
2462,1821
2463,1851
2464,1884
2465,1915
2466,1930
2467,1921
2468,1899
2469,1856
2470,1811
2471,1766
2472,1709
2473,1649
2474,1616
2475,1614
2476,1633
2477,1663
2478,1693
2479,1743
2480,1789
2481,1840
2482,1876
2483,1895
2484,1872
2485,1836
2486,1776
2487,1714
2488,1653
2489,1603
2490,1567
2491,1574
2492,1604
2493,1663
2494,1727
2495,1788
2496,1847
2497,1904
2498,1949
2499,1965
2500,1951
2501,1913
2502,1859
2503,1805
2504,1753
2505,1707
2506,1649
2507,1613
2508,1607
2509,1623
2510,1655
2511,1697
2512,1743
2513,1787
2514,1840
2515,1891
2516,1925
2517,1937
2518,1931
2519,1904
2520,1872
2521,1834
2522,1779
2523,1725
2524,1686
2525,1670
2526,1676
2527,1706
2528,1735
2529,1774
2530,1824
2531,1889
2532,1945
2533,1989
2534,2003
2535,1993
2536,1959
2537,1921
2538,1875
2539,1815
2540,1773
2541,1744
2542,1742
2543,1756
2544,1782
2545,1822
2546,1858
2547,1902
2548,1941
2549,1968
2550,1968
2551,1946
2552,1914
2553,1872
2554,1833
2555,1783
2556,1730
2557,1697
2558,1683
2559,1697
2560,1727
2561,1766
2562,1807
2563,1841
2564,1872
2565,1894
2566,1899
2567,1879
2568,1840
2569,1787
2570,1741
2571,1711
2572,1687
2573,1678
2574,1702
2575,1761
2576,1836
2577,1920
2578,2000
2579,2069
2580,2123
2581,2165
2582,2192
2583,2193
2584,2159
2585,2105
2586,2033
2587,1968
2588,1911
2589,1851
2590,1815
2591,1808
2592,1825
2593,1859
2594,1905
2595,1947
2596,1983
2597,2019
2598,2064
2599,2080
2600,2064
2601,2039
2602,2000
2603,1958
2604,1920
2605,1873
2606,1831
2607,1808
2608,1803
2609,1821
2610,1845
2611,1883
2612,1916
2613,1950
2614,1996
2615,2037
2616,2064
2617,2064
2618,2043
2619,2009
2620,1980
2621,1943
2622,1904
2623,1867
2624,1840
2625,1846
2626,1869
2627,1895
2628,1923
2629,1956
2630,1981
2631,2004
2632,2019
2633,2010
2634,1987
2635,1953
2636,1922
2637,1887
2638,1855
2639,1813
2640,1780
2641,1776
2642,1783
2643,1801
2644,1811
2645,1825
2646,1824
2647,1839
2648,1851
2649,1866
2650,1861
2651,1840
2652,1807
2653,1769
2654,1735
2655,1699
2656,1653
2657,1625
2658,1616
2659,1623
2660,1648
2661,1680
2662,1698
2663,1719
2664,1758
2665,1792
2666,1801
2667,1785
2668,1747
2669,1701
2670,1647
2671,1594
2672,1542
2673,1491
2674,1472
2675,1466
2676,1484
2677,1507
2678,1551
2679,1584
2680,1627
2681,1680
2682,1717
2683,1743
2684,1731
2685,1702
2686,1666
2687,1627
2688,1586
2689,1535
2690,1499
2691,1489
2692,1501
2693,1534
2694,1572
2695,1599
2696,1623
2697,1657
2698,1690
2699,1636
2700,1600
2701,1570
2702,1519
2703,1476
2704,1457
2705,1463
2706,1486
2707,1520
2708,1562
2709,1586
2710,1611
2711,1637
2712,1651
2713,1647
2714,1616
2715,1581
2716,1531
2717,1490
2718,1456
2719,1413
2720,1391
2721,1399
2722,1424
2723,1485
2724,1550
2725,1609
2726,1650
2727,1696
2728,1738
2729,1765
2730,1765
2731,1744
2732,1703
2733,1661
2734,1616
2735,1566
2736,1503
2737,1466
2738,1455
2739,1456
2740,1473
2741,1491
2742,1517
2743,1553
2744,1593
2745,1630
2746,1651
2747,1661
2748,1655
2749,1647
2750,1631
2751,1616
2752,1595
2753,1572
2754,1559
2755,1571
2756,1588
2757,1617
2758,1650
2759,1689
2760,1729
2761,1774
2762,1801
2763,1807
2764,1791
2765,1753
2766,1705
2767,1649
2768,1591
2769,1517
2770,1449
2771,1411
2772,1399
2773,1411
2774,1445
2775,1491
2776,1552
2777,1622
2778,1703
2779,1767
2780,1803
2781,1809
2782,1792
2783,1758
2784,1717
2785,1669
2786,1618
2787,1584
2788,1584
2789,1600
2790,1635
2791,1673
2792,1711
2793,1743
2794,1779
2795,1808
2796,1818
2797,1805
2798,1767
2799,1712
2800,1655
2801,1605
2802,1552
2803,1499
2804,1483
2805,1493
2806,1531
2807,1582
2808,1623
2809,1665
2810,1712
2811,1761
2812,1807
2813,1822
2814,1808
2815,1783
2816,1749
2817,1713
2818,1678
2819,1630
2820,1584
2821,1567
2822,1573
2823,1597
2824,1629
2825,1662
2826,1690
2827,1724
2828,1758
2829,1781
2830,1783
2831,1772
2832,1745
2833,1712
2834,1680
2835,1648
2836,1602
2837,1578
2838,1575
2839,1586
2840,1613
2841,1641
2842,1659
2843,1682
2844,1713
2845,1739
2846,1741
2847,1733
2848,1706
2849,1670
2850,1635
2851,1608
2852,1575
2853,1530
2854,1519
2855,1525
2856,1554
2857,1584
2858,1619
2859,1657
2860,1697
2861,1747
2862,1791
2863,1808
2864,1795
2865,1779
2866,1743
2867,1697
2868,1654
2869,1598
2870,1550
2871,1520
2872,1518
2873,1546
2874,1578
2875,1618
2876,1659
2877,1709
2878,1758
2879,1780
2880,1779
2881,1759
2882,1716
2883,1678
2884,1636
2885,1602
2886,1559
2887,1546
2888,1552
2889,1573
2890,1603
2891,1648
2892,1680
2893,1712
2894,1748
2895,1776
2896,1779
2897,1767
2898,1736
2899,1698
2900,1668
2901,1637
2902,1593
2903,1551
2904,1519
2905,1521
2906,1550
2907,1590
2908,1632
2909,1663
2910,1702
2911,1743
2912,1776
2913,1789
2914,1776
2915,1742
2916,1698
2917,1653
2918,1614
2919,1567
2920,1531
2921,1531
2922,1552
2923,1583
2924,1616
2925,1658
2926,1702
2927,1744
2928,1791
2929,1814
2930,1815
2931,1790
2932,1746
2933,1695
2934,1633
2935,1570
2936,1499
2937,1453
2938,1437
2939,1456
2940,1488
2941,1543
2942,1599
2943,1655
2944,1711
2945,1746
2946,1773
2947,1774
2948,1745
2949,1714
2950,1682
2951,1648
2952,1600
2953,1552
2954,1521
2955,1529
2956,1567
2957,1610
2958,1659
2959,1697
2960,1728
2961,1761
2962,1776
2963,1764
2964,1725
2965,1673
2966,1620
2967,1586
2968,1559
2969,1532
2970,1527
2971,1552
2972,1586
2973,1645
2974,1697
2975,1749
2976,1793
2977,1841
2978,1878
2979,1898
2980,1886
2981,1851
2982,1803
2983,1753
2984,1693
2985,1631
2986,1571
2987,1523
2988,1520
2989,1535
2990,1582
2991,1619
2992,1660
2993,1702
2994,1756
2995,1806
2996,1840
2997,1845
2998,1829
2999,1801
3000,1776
3001,1746
3002,1710
3003,1662
3004,1641
3005,1638
3006,1649
3007,1680
3008,1701
3009,1723
3010,1738
3011,1753
3012,1765
3013,1757
3014,1729
3015,1683
3016,1639
3017,1601
3018,1571
3019,1525
3020,1498
3021,1505
3022,1535
3023,1593
3024,1648
3025,1703
3026,1752
3027,1808
3028,1865
3029,1903
3030,1911
3031,1903
3032,1872
3033,1829
3034,1783
3035,1733
3036,1673
3037,1633
3038,1626
3039,1642
3040,1673
3041,1711
3042,1753
3043,1793
3044,1835
3045,1867
3046,1878
3047,1863
3048,1826
3049,1781
3050,1739
3051,1697
3052,1649
3053,1616
3054,1600
3055,1618
3056,1650
3057,1697
3058,1728
3059,1763
3060,1789
3061,1818
3062,1839
3063,1840
3064,1819
3065,1777
3066,1733
3067,1693
3068,1665
3069,1632
3070,1616
3071,1622
3072,1649
3073,1694
3074,1744
3075,1800
3076,1844
3077,1893
3078,1934
3079,1957
3080,1936
3081,1891
3082,1825
3083,1757
3084,1685
3085,1618
3086,1551
3087,1511
3088,1504
3089,1533
3090,1595
3091,1666
3092,1744
3093,1807
3094,1855
3095,1895
3096,1900
3097,1873
3098,1835
3099,1773
3100,1712
3101,1668
3102,1625
3103,1598
3104,1605
3105,1635
3106,1685
3107,1749
3108,1810
3109,1857
3110,1895
3111,1927
3112,1951
3113,1953
3114,1938
3115,1917
3116,1886
3117,1856
3118,1831
3119,1791
3120,1765
3121,1765
3122,1790
3123,1829
3124,1877
3125,1914
3126,1943
3127,1968
3128,1994
3129,1998
3130,1986
3131,1959
3132,1920
3133,1878
3134,1837
3135,1793
3136,1742
3137,1710
3138,1708
3139,1719
3140,1755
3141,1796
3142,1836
3143,1874
3144,1924
3145,1969
3146,2001
3147,2008
3148,1987
3149,1949
3150,1904
3151,1857
3152,1806
3153,1746
3154,1706
3155,1682
3156,1692
3157,1711
3158,1742
3159,1776
3160,1811
3161,1863
3162,1904
3163,1914
3164,1902
3165,1874
3166,1843
3167,1808
3168,1772
3169,1712
3170,1659
3171,1636
3172,1632
3173,1647
3174,1667
3175,1684
3176,1715
3177,1745
3178,1783
3179,1804
3180,1805
3181,1792
3182,1771
3183,1741
3184,1703
3185,1662
3186,1611
3187,1586
3188,1586
3189,1613
3190,1651
3191,1695
3192,1730
3193,1772
3194,1815
3195,1859
3196,1888
3197,1885
3198,1853
3199,1807
3200,1753
3201,1705
3202,1646
3203,1598
3204,1584
3205,1584
3206,1609
3207,1643
3208,1695
3209,1739
3210,1793
3211,1850
3212,1891
3213,1904
3214,1886
3215,1852
3216,1805
3217,1753
3218,1706
3219,1648
3220,1602
3221,1587
3222,1591
3223,1613
3224,1655
3225,1705
3226,1746
3227,1792
3228,1839
3229,1866
3230,1857
3231,1837
3232,1791
3233,1744
3234,1704
3235,1654
3236,1597
3237,1567
3238,1567
3239,1591
3240,1638
3241,1692
3242,1745
3243,1806
3244,1862
3245,1915
3246,1938
3247,1935
3248,1904
3249,1853
3250,1795
3251,1737
3252,1677
3253,1617
3254,1587
3255,1589
3256,1609
3257,1645
3258,1694
3259,1743
3260,1799
3261,1866
3262,1919
3263,1954
3264,1968
3265,1954
3266,1923
3267,1887
3268,1846
3269,1793
3270,1744
3271,1716
3272,1711
3273,1719
3274,1738
3275,1773
3276,1803
3277,1839
3278,1878
3279,1904
3280,1915
3281,1915
3282,1901
3283,1875
3284,1856
3285,1821
3286,1777
3287,1753
3288,1771
3289,1805
3290,1869
3291,1936
3292,2014
3293,2096
3294,2179
3295,2261
3296,2326
3297,2375
3298,2415
3299,2447
3300,2489
3301,2539
3302,2585
3303,2618
3304,2681
3305,2765
3306,2875
3307,2996
3308,3143
3309,3305
3310,3471
3311,3676
3312,3877
3313,4029
3314,4095
3315,4095
3316,4095
3317,3991
3318,3873
3319,3619
3320,3402
3321,3212
3322,3013
3323,2838
3324,2664
3325,2490
3326,2326
3327,2178
3328,2039
3329,1904
3330,1776
3331,1651
3332,1534
3333,1443
3334,1397
3335,1378
3336,1367
3337,1397
3338,1462
3339,1558
3340,1658
3341,1750
3342,1833
3343,1904
3344,1967
3345,2007
3346,2026
3347,2014
3348,1975
3349,1936
3350,1897
3351,1856
3352,1815
3353,1777
3354,1765
3355,1777
3356,1808
3357,1844
3358,1875
3359,1900
3360,1924
3361,1955
3362,1975
3363,1971
3364,1942
3365,1901
3366,1853
3367,1809
3368,1772
3369,1719
3370,1689
3371,1685
3372,1715
3373,1755
3374,1802
3375,1845
3376,1885
3377,1927
3378,1973
3379,2000
3380,2005
3381,1992
3382,1963
3383,1925
3384,1879
3385,1827
3386,1763
3387,1717
3388,1705
3389,1718
3390,1755
3391,1803
3392,1851
3393,1902
3394,1956
3395,2003
3396,2027
3397,2016
3398,1984
3399,1935
3400,1878
3401,1822
3402,1758
3403,1698
3404,1662
3405,1661
3406,1682
3407,1722
3408,1773
3409,1819
3410,1870
3411,1920
3412,1952
3413,1963
3414,1943
3415,1921
3416,1893
3417,1869
3418,1845
3419,1798
3420,1747
3421,1715
3422,1702
3423,1714
3424,1744
3425,1781
3426,1827
3427,1873
3428,1934
3429,1970
3430,1989
3431,1981
3432,1949
3433,1907
3434,1855
3435,1805
3436,1741
3437,1698
3438,1682
3439,1691
3440,1711
3441,1731
3442,1758
3443,1781
3444,1808
3445,1841
3446,1807
3447,1841
3448,1869
3449,1907
3450,1949
3451,1970
3452,1973
3453,1960
3454,1933
3455,1904
3456,1874
3457,1850
3458,1824
3459,1818
3460,1833
3461,1861
3462,1898
3463,1929
3464,1963
3465,1987
3466,2026
3467,2057
3468,2069
3469,2061
3470,2026
3471,1993
3472,1961
3473,1928
3474,1883
3475,1850
3476,1839
3477,1853
3478,1886
3479,1931
3480,1979
3481,2017
3482,2062
3483,2101
3484,2130
3485,2132
3486,2111
3487,2071
3488,2020
3489,1972
3490,1930
3491,1877
3492,1852
3493,1846
3494,1868
3495,1904
3496,1951
3497,1998
3498,2039
3499,2087
3500,2130
3501,2160
3502,2176
3503,2167
3504,2142
3505,2111
3506,2069
3507,2019
3508,1955
3509,1907
3510,1888
3511,1890
3512,1920
3513,1952
3514,1990
3515,2041
3516,2097
3517,2145
3518,2176
3519,2176
3520,2157
3521,2114
3522,2065
3523,2005
3524,1947
3525,1890
3526,1861
3527,1869
3528,1893
3529,1935
3530,1968
3531,2005
3532,2045
3533,2092
3534,2127
3535,2141
3536,2139
3537,2119
3538,2094
3539,2063
3540,2021
3541,1968
3542,1915
3543,1891
3544,1891
3545,1905
3546,1933
3547,1959
3548,1981
3549,2011
3550,2037
3551,2057
3552,2046
3553,2011
3554,1968
3555,1923
3556,1877
3557,1829
3558,1781
3559,1753
3560,1746
3561,1760
3562,1792
3563,1817
3564,1843
3565,1870
3566,1906
3567,1939
3568,1949
3569,1927
3570,1886
3571,1825
3572,1773
3573,1713
3574,1651
3575,1605
3576,1585
3577,1588
3578,1617
3579,1658
3580,1705
3581,1741
3582,1789
3583,1839
3584,1875
3585,1888
3586,1871
3587,1822
3588,1766
3589,1706
3590,1649
3591,1591
3592,1549
3593,1520
3594,1527
3595,1562
3596,1595
3597,1629
3598,1649
3599,1675
3600,1703
3601,1719
3602,1715
3603,1695
3604,1660
3605,1631
3606,1607
3607,1582
3608,1552
3609,1531
3610,1550
3611,1584
3612,1618
3613,1664
3614,1703
3615,1735
3616,1770
3617,1798
3618,1807
3619,1779
3620,1739
3621,1681
3622,1621
3623,1572
3624,1506
3625,1463
3626,1456
3627,1484
3628,1531
3629,1597
3630,1664
3631,1726
3632,1791
3633,1853
3634,1889
3635,1896
3636,1861
3637,1808
3638,1737
3639,1663
3640,1584
3641,1497
3642,1436
3643,1405
3644,1408
3645,1445
3646,1503
3647,1580
3648,1652
3649,1731
3650,1805
3651,1857
3652,1874
3653,1869
3654,1831
3655,1785
3656,1728
3657,1660
3658,1591
3659,1543
3660,1525
3661,1535
3662,1584
3663,1636
3664,1695
3665,1745
3666,1800
3667,1849
3668,1872
3669,1867
3670,1826
3671,1777
3672,1718
3673,1664
3674,1606
3675,1559
3676,1529
3677,1543
3678,1579
3679,1626
3680,1681
3681,1732
3682,1788
3683,1840
3684,1872
3685,1872
3686,1846
3687,1798
3688,1751
3689,1709
3690,1671
3691,1624
3692,1593
3693,1586
3694,1613
3695,1660
3696,1710
3697,1751
3698,1795
3699,1839
3700,1869
3701,1882
3702,1869
3703,1831
3704,1793
3705,1754
3706,1726
3707,1685
3708,1643
3709,1611
3710,1611
3711,1626
3712,1639
3713,1666
3714,1697
3715,1713
3716,1735
3717,1751
3718,1751
3719,1730
3720,1706
3721,1675
3722,1649
3723,1629
3724,1611
3725,1590
3726,1588
3727,1603
3728,1642
3729,1690
3730,1744
3731,1789
3732,1839
3733,1891
3734,1929
3735,1939
3736,1924
3737,1890
3738,1843
3739,1789
3740,1730
3741,1661
3742,1600
3743,1575
3744,1583
3745,1600
3746,1638
3747,1680
3748,1715
3749,1759
3750,1797
3751,1821
3752,1822
3753,1811
3754,1789
3755,1776
3756,1744
3757,1711
3758,1665
3759,1633
3760,1621
3761,1641
3762,1663
3763,1690
3764,1717
3765,1738
3766,1775
3767,1794
3768,1797
3769,1781
3770,1744
3771,1711
3772,1673
3773,1642
3774,1600
3775,1557
3776,1531
3777,1545
3778,1579
3779,1619
3780,1676
3781,1718
3782,1757
3783,1804
3784,1841
3785,1862
3786,1856
3787,1825
3788,1781
3789,1729
3790,1674
3791,1606
3792,1548
3793,1513
3794,1510
3795,1534
3796,1578
3797,1628
3798,1679
3799,1745
3800,1822
3801,1887
3802,1919
3803,1923
3804,1899
3805,1859
3806,1810
3807,1755
3808,1702
3809,1661
3810,1648
3811,1647
3812,1662
3813,1680
3814,1703
3815,1721
3816,1746
3817,1766
3818,1773
3819,1755
3820,1728
3821,1685
3822,1656
3823,1619
3824,1591
3825,1574
3826,1569
3827,1589
3828,1627
3829,1675
3830,1713
3831,1751
3832,1788
3833,1819
3834,1842
3835,1850
3836,1834
3837,1804
3838,1770
3839,1730
3840,1693
3841,1648
3842,1605
3843,1600
3844,1613
3845,1641
3846,1665
3847,1690
3848,1714
3849,1745
3850,1781
3851,1803
3852,1791
3853,1773
3854,1744
3855,1715
3856,1690
3857,1655
3858,1613
3859,1587
3860,1598
3861,1619
3862,1650
3863,1682
3864,1712
3865,1744
3866,1777
3867,1815
3868,1834
3869,1824
3870,1809
3871,1788
3872,1765
3873,1742
3874,1708
3875,1676
3876,1654
3877,1654
3878,1671
3879,1686
3880,1709
3881,1718
3882,1744
3883,1776
3884,1792
3885,1787
3886,1748
3887,1709
3888,1661
3889,1620
3890,1594
3891,1563
3892,1552
3893,1574
3894,1629
3895,1700
3896,1778
3897,1851
3898,1915
3899,1971
3900,2009
3901,2029
3902,2001
3903,1955
3904,1889
3905,1823
3906,1767
3907,1717
3908,1663
3909,1630
3910,1623
3911,1645
3912,1679
3913,1723
3914,1762
3915,1798
3916,1839
3917,1870
3918,1887
3919,1872
3920,1840
3921,1789
3922,1730
3923,1679
3924,1617
3925,1564
3926,1534
3927,1531
3928,1558
3929,1595
3930,1637
3931,1682
3932,1729
3933,1779
3934,1822
3935,1860
3936,1877
3937,1881
3938,1872
3939,1855
3940,1840
3941,1808
3942,1782
3943,1773
3944,1776
3945,1786
3946,1804
3947,1823
3948,1850
3949,1882
3950,1915
3951,1929
3952,1921
3953,1894
3954,1854
3955,1807
3956,1761
3957,1712
3958,1659
3959,1629
3960,1628
3961,1645
3962,1673
3963,1805
3964,1745
3965,1703
3966,1652
3967,1620
3968,1617
3969,1649
3970,1699
3971,1763
3972,1828
3973,1881
3974,1927
3975,1967
3976,1986
3977,1995
3978,1971
3979,1939
3980,1769
3981,1810
3982,1846
3983,1887
3984,1927
3985,1947
3986,1940
3987,1916
3988,1874
3989,1830
3990,1776
3991,1721
3992,1664
3993,1629
3994,1625
3995,1658
3996,1705
3997,1761
3998,1803
3999,1840
4000,1872
4001,1902
4002,1904
4003,1901
4004,1895
4005,1887
4006,1887
4007,1901
4008,1903
4009,1904
4010,1907
4011,1925
4012,1954
4013,1991
4014,2032
4015,2066
4016,2097
4017,2121
4018,2134
4019,2128
4020,2097
4021,2055
4022,2000
4023,1961
4024,1919
4025,1866
4026,1823
4027,1808
4028,1822
4029,1861
4030,1904
4031,1950
4032,1991
4033,2032
4034,2067
4035,2075
4036,2046
4037,2007
4038,1944
4039,1872
4040,1807
4041,1738
4042,1662
4043,1616
4044,1602
4045,1619
4046,1674
4047,1744
4048,1823
4049,1900
4050,1968
4051,2023
4052,2061
4053,2063
4054,2037
4055,2004
4056,1974
4057,1942
4058,1901
4059,1851
4060,1823
4061,1817
4062,1833
4063,1845
4064,1859
4065,1867
4066,1872
4067,1887
4068,1892
4069,1887
4070,1869
4071,1839
4072,1805
4073,1776
4074,1749
4075,1717
4076,1693
4077,1693
4078,1705
4079,1729
4080,1757
4081,1779
4082,1802
4083,1811
4084,1830
4085,1831
4086,1823
4087,1808
4088,1791
4089,1767
4090,1753
4091,1740
4092,1713
4093,1712
4094,1731
4095,1767
4096,1808
4097,1842
4098,1870
4099,1899
4100,1927
4101,1958
4102,1968
4103,1950
4104,1917
4105,1871
4106,1828
4107,1791
4108,1745
4109,1709
4110,1685
4111,1698
4112,1728
4113,1762
4114,1805
4115,1838
4116,1877
4117,1920
4118,1947
4119,1958
4120,1925
4121,1886
4122,1826
4123,1776
4124,1719
4125,1663
4126,1616
4127,1601
4128,1619
4129,1661
4130,1720
4131,1776
4132,1837
4133,1895
4134,1951
4135,1989
4136,2004
4137,1991
4138,1956
4139,1910
4140,1870
4141,1821
4142,1765
4143,1737
4144,1733
4145,1756
4146,1799
4147,1855
4148,1906
4149,1959
4150,2017
4151,2065
4152,2082
4153,2067
4154,2028
4155,1969
4156,1906
4157,1840
4158,1761
4159,1687
4160,1635
4161,1613
4162,1617
4163,1655
4164,1710
4165,1776
4166,1850
4167,1922
4168,1984
4169,2017
4170,2023
4171,2021
4172,2003
4173,1982
4174,1957
4175,1920
4176,1893
4177,1895
4178,1923
4179,1978
4180,2039
4181,2112
4182,2175
4183,2251
4184,2331
4185,2385
4186,2423
4187,2443
4188,2453
4189,2475
4190,2496
4191,2519
4192,2545
4193,2598
4194,2676
4195,2783
4196,2903
4197,3043
4198,3187
4199,3331
4200,3482
4201,3634
4202,3728
4203,3782
4204,3766
4205,3702
4206,3616
4207,3511
4208,3401
4209,3287
4210,3184
4211,3086
4212,2989
4213,2889
4214,2775
4215,2657
4216,2532
4217,2419
4218,2301
4219,2167
4220,2021
4221,1876
4222,1743
4223,1631
4224,1533
4225,1442
4226,1392
4227,1382
4228,1413
4229,1472
4230,1551
4231,1636
4232,1712
4233,1792
4234,1872
4235,1936
4236,1971
4237,1993
4238,1990
4239,1975
4240,1952
4241,1910
4242,1857
4243,1810
4244,1785
4245,1771
4246,1765
4247,1763
4248,1774
4249,1779
4250,1803
4251,1834
4252,1863
4253,1892
4254,1916
4255,1936
4256,1951
4257,1957
4258,1955
4259,1940
4260,1941
4261,1958
4262,1984
4263,2017
4264,2047
4265,2075
4266,2095
4267,2113
4268,2117
4269,2098
4270,2061
4271,2005
4272,1959
4273,1902
4274,1855
4275,1803
4276,1771
4277,1760
4278,1779
4279,1812
4280,1855
4281,1890
4282,1917
4283,1952
4284,1986
4285,2003
4286,2000
4287,1973
4288,1933
4289,1886
4290,1840
4291,1792
4292,1735
4293,1710
4294,1717
4295,1751
4296,1803
4297,1856
4298,1901
4299,1936
4300,1974
4301,2005
4302,2020
4303,2018
4304,2003
4305,1991
4306,1975
4307,1968
4308,1935
4309,1899
4310,1879
4311,1885
4312,1911
4313,1937
4314,1967
4315,1995
4316,2017
4317,2065
4318,2092
4319,2096
4320,2070
4321,2031
4322,1985
4323,1938
4324,1897
4325,1845
4326,1807
4327,1789
4328,1792
4329,1810
4330,1835
4331,1857
4332,1882
4333,1920
4334,1963
4335,1995
4336,2008
4337,2005
4338,1994
4339,1979
4340,1959
4341,1937
4342,1905
4343,1891
4344,1900
4345,1927
4346,1967
4347,1999
4348,2022
4349,2043
4350,2066
4351,2082
4352,2077
4353,2054
4354,2005
4355,1954
4356,1899
4357,1856
4358,1814
4359,1792
4360,1802
4361,1841
4362,1906
4363,1974
4364,2035
4365,2092
4366,2138
4367,2185
4368,2215
4369,2213
4370,2180
4371,2128
4372,2070
4373,2010
4374,1951
4375,1881
4376,1827
4377,1808
4378,1814
4379,1859
4380,1913
4381,1970
4382,2034
4383,2111
4384,2175
4385,2220
4386,2225
4387,2198
4388,2160
4389,2118
4390,2077
4391,2023
4392,1973
4393,1947
4394,1950
4395,1968
4396,2001
4397,2043
4398,2093
4399,2128
4400,2163
4401,2197
4402,2207
4403,2193
4404,2163
4405,2135
4406,2112
4407,2076
4408,2027
4409,1981
4410,1955
4411,1955
4412,1975
4413,2001
4414,2039
4415,2077
4416,2112
4417,2160
4418,2198
4419,2223
4420,2213
4421,2192
4422,2165
4423,2135
4424,2101
4425,2047
4426,2005
4427,1995
4428,2005
4429,2034
4430,2073
4431,2113
4432,2138
4433,2176
4434,2223
4435,2243
4436,2244
4437,2219
4438,2174
4439,2127
4440,2085
4441,2043
4442,2000
4443,1971
4444,1983
4445,2011
4446,2065
4447,2123
4448,2167
4449,2208
4450,2240
4451,2259
4452,2256
4453,2227
4454,2186
4455,2131
4456,2083
4457,2033
4458,1987
4459,1955
4460,1954
4461,1983
4462,2021
4463,2071
4464,2106
4465,2131
4466,2158
4467,2182
4468,2198
4469,2195
4470,2164
4471,2115
4472,2060
4473,1997
4474,1933
4475,1870
4476,1821
4477,1808
4478,1820
4479,1851
4480,1887
4481,1920
4482,1949
4483,1975
4484,1999
4485,2009
4486,1997
4487,1961
4488,1917
4489,1872
4490,1825
4491,1776
4492,1727
4493,1703
4494,1702
4495,1727
4496,1761
4497,1792
4498,1824
4499,1853
4500,1888
4501,1920
4502,1931
4503,1917
4504,1875
4505,1826
4506,1779
4507,1739
4508,1687
4509,1647
4510,1624
4511,1629
4512,1647
4513,1679
4514,1712
4515,1744
4516,1775
4517,1814
4518,1843
4519,1853
4520,1837
4521,1795
4522,1754
4523,1712
4524,1690
4525,1654
4526,1630
4527,1629
4528,1664
4529,1707
4530,1751
4531,1797
4532,1827
4533,1858
4534,1901
4535,1906
4536,1889
4537,1858
4538,1811
4539,1762
4540,1711
4541,1651
4542,1602
4543,1578
4544,1589
4545,1621
4546,1670
4547,1714
4548,1763
4549,1792
4550,1838
4551,1871
4552,1872
4553,1856
4554,1815
4555,1760
4556,1707
4557,1662
4558,1602
4559,1555
4560,1535
4561,1552
4562,1586
4563,1630
4564,1697
4565,1746
4566,1799
4567,1863
4568,1906
4569,1933
4570,1925
4571,1895
4572,1850
4573,1801
4574,1758
4575,1709
4576,1664
4577,1647
4578,1648
4579,1675
4580,1707
4581,1740
4582,1761
4583,1791
4584,1819
4585,1840
4586,1840
4587,1820
4588,1795
4589,1774
4590,1749
4591,1732
4592,1701
4593,1677
4594,1683
4595,1714
4596,1756
4597,1802
4598,1845
4599,1875
4600,1918
4601,1942
4602,1949
4603,1920
4604,1889
4605,1839
4606,1801
4607,1767
4608,1735
4609,1712
4610,1702
4611,1717
4612,1754
4613,1803
4614,1839
4615,1865
4616,1888
4617,1910
4618,1921
4619,1903
4620,1860
4621,1811
4622,1759
4623,1712
4624,1674
4625,1623
4626,1603
4627,1615
4628,1658
4629,1720
4630,1789
4631,1854
4632,1904
4633,1943
4634,1989
4635,2004
4636,1998
4637,1965
4638,1933
4639,1889
4640,1841
4641,1793
4642,1740
4643,1703
4644,1686
4645,1692
4646,1707
4647,1718
4648,1742
4649,1767
4650,1809
4651,1857
4652,1885
4653,1893
4654,1886
4655,1872
4656,1856
4657,1838
4658,1807
4659,1773
4660,1759
4661,1765
4662,1793
4663,1840
4664,1889
4665,1936
4666,1972
4667,2003
4668,2023
4669,2019
4670,2000
4671,1957
4672,1908
4673,1863
4674,1810
4675,1747
4676,1712
4677,1703
4678,1724
4679,1760
4680,1795
4681,1831
4682,1859
4683,1899
4684,1938
4685,1964
4686,1964
4687,
4688,
4689,1943
4690,1904
4691,1857
4692,1808
4693,1755
4694,1699
4695,1659
4696,1650
4697,1674
4698,1712
4699,1766
4700,1811
4701,1869
4702,1923
4703,1975
4704,2002
4705,2000
4706,1981
4707,1940
4708,1903
4709,1859
4710,1808
4711,1760
4712,1739
4713,1743
4714,1751
4715,1776
4716,1808
4717,1874
4718,1829
4719,1771
4720,1725
4721,1712
4722,1713
4723,1744
4724,1778
4725,1816
4726,1859
4727,1909
4728,1948
4729,1966
4730,1958
4731,1931
4732,1890
4733,1845
4734,1797
4735,1739
4736,1687
4737,1675
4738,1691
4739,1727
4740,1775
4741,1819
4742,1855
4743,1895
4744,1941
4745,1968
4746,1969
4747,1947
4748,1909
4749,1871
4750,1824
4751,1786
4752,1738
4753,1699
4754,1876
4755,1822
4756,1771
4757,1728
4758,1686
4759,
4760,
4761,1669
4762,1691
4763,1739
4764,1799
4765,1856
4766,1905
4767,1945
4768,1984
4769,2003
4770,2005
4771,1983
4772,1935
4773,1887
4774,1840
4775,1791
4776,1743
4777,1701
4778,1686
4779,1701
4780,1739
4781,1783
4782,1839
4783,1882
4784,1921
4785,1971
4786,2012
4787,2031
4788,2022
4789,1987
4790,1936
4791,1882
4792,1828
4793,1771
4794,1713
4795,1701
4796,1716
4797,1747
4798,1781
4799,1814
4800,1849
4801,1882
4802,1922
4803,1962
4804,1973
4805,1968
4806,1949
4807,1935
4808,1915
4809,1904
4810,1877
4811,1862
4812,1877
4813,1922
4814,1977
4815,2031
4816,2077
4817,2097
4818,2113
4819,2118
4820,2111
4821,2089
4822,2053
4823,2018
4824,1998
4825,1744
4826,1745
4827,1777
4828,1831
4829,1878
4830,1922
4831,
4832,
4833,1959
4834,2000
4835,2046
4836,2070
4837,2073
4838,2039
4839,1997
4840,1939
4841,1883
4842,1814
4843,1756
4844,1712
4845,1701
4846,1717
4847,1751
4848,1798
4849,1842
4850,1884
4851,1933
4852,1968
4853,1973
4854,1965
4855,1935
4856,1904
4857,1872
4858,1853
4859,1824
4860,1801
4861,1797
4862,1806
4863,1827
4864,1858
4865,1895
4866,1925
4867,1953
4868,1984
4869,2000
4870,1996
4871,1974
4872,1941
4873,1904
4874,1878
4875,1855
4876,1823
4877,1797
4878,1793
4879,1808
4880,1831
4881,1871
4882,1899
4883,1922
4884,1952
4885,1985
4886,2000
4887,1994
4888,1966
4889,1915
4890,1873
4891,1831
4892,1777
4893,1731
4894,1712
4895,1723
4896,1831
4897,1878
4898,1934
4899,1975
4900,2027
4901,2070
4902,
4903,
4904,
4905,2084
4906,2081
4907,2054
4908,2011
4909,1977
4910,1939
4911,1902
4912,1859
4913,1847
4914,1859
4915,1899
4916,1957
4917,2026
4918,2097
4919,2162
4920,2239
4921,2299
4922,2351
4923,2381
4924,2402
4925,2422
4926,2456
4927,2469
4928,2487
4929,2509
4930,2555
4931,2631
4932,2729
4933,2836
4934,2949
4935,3070
4936,3200
4937,3338
4938,3470
4939,3607
4940,3711
4941,3789
4942,3824
4943,3843
4944,3830
4945,3767
4946,3708
4947,3643
4948,3559
4949,3471
4950,3351
4951,3214
4952,3049
4953,2896
4954,2751
4955,2591
4956,2412
4957,2223
4958,2035
4959,1863
4960,1712
4961,1580
4962,1460
4963,1901
4964,1963
4965,2014
4966,2078
4967,2128
4968,2158
4969,
4970,
4971,2161
4972,2147
4973,2119
4974,2077
4975,2029
4976,1975
4977,1923
4978,1888
4979,1878
4980,1895
4981,1931
4982,1969
4983,2002
4984,2032
4985,2064
4986,2087
4987,2085
4988,2054
4989,2003
4990,1957
4991,
4992,
4993,1909
4994,1870
4995,1833
4996,1799
4997,1788
4998,1802
4999,1834
5000,1866
5001,1903
5002,1935
5003,1969
5004,2011
5005,2034
5006,2046
5007,2032
5008,2013
5009,1991
5010,1977
5011,1952
5012,1909
5013,1881
5014,1867
5015,1870
5016,1892
5017,1913
5018,1947
5019,1976
5020,2011
5021,2047
5022,2068
5023,2069
5024,2055
5025,2025
5026,1993
5027,1955
5028,1910
5029,1860
5030,1904
5031,1956
5032,2002
5033,2047
5034,2096
5035,2128
5036,2143
5037,2126
5038,2093
5039,2043
5040,2000
5041,1953
5042,1901
5043,1854
5044,1823
5045,1826
5046,1856
5047,1901
5048,1946
5049,2160
5050,2103
5051,2031
5052,1981
5053,1958
5054,1963
5055,1990
5056,2029
5057,2081
5058,2128
5059,2177
5060,2230
5061,2266
5062,2274
5063,2257
5064,2228
5065,2188
5066,2138
5067,2093
5068,
5069,
5070,2030
5071,1999
5072,1991
5073,1999
5074,2019
5075,2041
5076,2062
5077,2078
5078,2092
5079,2096
5080,2081
5081,2047
5082,2000
5083,1957
5084,1922
5085,1882
5086,1839
5087,1803
5088,1793
5089,1811
5090,1843
5091,1877
5092,1904
5093,1923
5094,1954
5095,1975
5096,1990
5097,1981
5098,1948
5099,1904
5100,1857
5101,1810
5102,1766
5103,1713
5104,1675
5105,1659
5106,1669
5107,1683
5108,1710
5109,1742
5110,1776
5111,1823
5112,1872
5113,1914
5114,1933
5115,1932
5116,1905
5117,1872
5118,1824
5119,1764
5120,1711
5121,1675
5122,1676
5123,1705
5124,1750
5125,1802
5126,1856
5127,1899
5128,1945
5129,1967
5130,1974
5131,1967
5132,1939
5133,1901
5134,1854
5135,
5136,
5137,1827
5138,1825
5139,1841
5140,1867
5141,1893
5142,1910
5143,1916
5144,1936
5145,1943
5146,1950
5147,1933
5148,1904
5149,1877
5150,1848
5151,1831
5152,1801
5153,1775
5154,1774
5155,1783
5156,1821
5157,1858
5158,1905
5159,1943
5160,1987
5161,2032
5162,2073
5163,2090
5164,2077
5165,2039
5166,2001
5167,1952
5168,1911
5169,1863
5170,1835
5171,1833
5172,1849
5173,1877
5174,1914
5175,1947
5176,1973
5177,2011
5178,2037
5179,2055
5180,2045
5181,2021
5182,1982
5183,1936
5184,1888
5185,1835
5186,1785
5187,1753
5188,1762
5189,1791
5190,1833
5191,1877
5192,1921
5193,1964
5194,2009
5195,2055
5196,2080
5197,1971
5198,1913
5199,1872
5200,
5201,
5202,
5203,1857
5204,1870
5205,1891
5206,1930
5207,1971
5208,2017
5209,2067
5210,2112
5211,2128
5212,2112
5213,2067
5214,2010
5215,1958
5216,1915
5217,1861
5218,1827
5219,1820
5220,1839
5221,1879
5222,1922
5223,1969
5224,2001
5225,2032
5226,2075
5227,2087
5228,2082
5229,2054
5230,2005
5231,1963
5232,1927
5233,1894
5234,1851
5235,1818
5236,1815
5237,1835
5238,1871
5239,1915
5240,1953
5241,2000
5242,2041
5243,2095
5244,2111
5245,2099
5246,2071
5247,2021
5248,1981
5249,1936
5250,1895
5251,1846
5252,1810
5253,1809
5254,1837
5255,1875
5256,1921
5257,1971
5258,2023
5259,2081
5260,2127
5261,2139
5262,2128
5263,1941
5264,1979
5265,2016
5266,
5267,
5268,2068
5269,2112
5270,2127
5271,2110
5272,2077
5273,2020
5274,1977
5275,1936
5276,1887
5277,1850
5278,1850
5279,1872
5280,1907
5281,1949
5282,1977
5283,2000
5284,2027
5285,2057
5286,2071
5287,2065
5288,2038
5289,2010
5290,1989
5291,1967
5292,1947
5293,1910
5294,1883
5295,1878
5296,1903
5297,1934
5298,1976
5299,2009
5300,2045
5301,2090
5302,2113
5303,2121
5304,2100
5305,2070
5306,2029
5307,1986
5308,1950
5309,1911
5310,1871
5311,1847
5312,1851
5313,1875
5314,1909
5315,1953
5316,1998
5317,2039
5318,2094
5319,2125
5320,2127
5321,2106
5322,2077
5323,2028
5324,1983
5325,1942
5326,1893
5327,1856
5328,1840
5329,1914
5330,1959
5331,2011
5332,2061
5333,2113
5334,
5335,
5336,2161
5337,2183
5338,2186
5339,2159
5340,2117
5341,2073
5342,2022
5343,1968
5344,1915
5345,1887
5346,1893
5347,1922
5348,1972
5349,2035
5350,2103
5351,2160
5352,2218
5353,2256
5354,2259
5355,2240
5356,2209
5357,2166
5358,2125
5359,2087
5360,2030
5361,1989
5362,1980
5363,1987
5364,2013
5365,2059
5366,2098
5367,2141
5368,2189
